Data from JAZA26501_14-11-49-607.txt Node
Date: Sun Sep 29 14:11:49 ADT 2013
User: oceanview
Spectrometer:  JAZA2650
Trigger mode: 0
Integration Time (sec): 1.000000E-1
Scans to average: 10
Electric dark correction enabled: true
Nonlinearity correction enabled: false
Boxcar width: 0
XAxis mode: Wavelengths
Number of Pixels in Spectrum: 2048
>>>>>Begin Spectral Data<<<<<
1.897E2	-18.432E0
1.9015E2	-18.432E0
1.9061E2	-18.432E0
1.9106E2	-22.30E0
1.9151E2	-4.7786E0
1.9197E2	-2.9582E0
1.9242E2	-2.2755E0
1.9288E2	9.7847E0
1.9333E2	13.426E0
1.9378E2	14.563E0
1.9424E2	22.30E0
1.9469E2	1.5929E0
1.9515E2	-68.266E-2
1.956E2	-15.018E0
1.9605E2	7.0541E0
1.9651E2	2.2755E0
1.9696E2	-3.6408E0
1.9742E2	-91.021E-2
1.9787E2	-20.025E0
1.9832E2	-11.833E0
1.9878E2	-15.929E0
1.9923E2	-14.791E0
1.9968E2	-8.4194E0
2.0014E2	-21.39E0
2.0059E2	-8.1919E0
2.0104E2	-9.5572E0
2.015E2	-11.605E0
2.0195E2	8.1919E0
2.0241E2	9.5572E0
2.0286E2	-5.9164E0
2.0331E2	6.599E0
2.0377E2	-2.2755E0
2.0422E2	-2.7306E0
2.0467E2	-2.048E0
2.0513E2	-1.5929E0
2.0558E2	4.551E0
2.0603E2	-9.1021E0
2.0649E2	-18.204E0
2.0694E2	-20.707E0
2.0739E2	-22.528E0
2.0785E2	11.833E0
2.083E2	-12.288E0
2.0875E2	-16.384E0
2.0921E2	-21.845E0
2.0966E2	-22.073E0
2.1011E2	-15.018E0
2.1056E2	-31.63E0
2.1102E2	-5.4613E0
2.1147E2	-10.24E0
2.1192E2	7.7368E0
2.1238E2	-18.659E0
2.1283E2	-21.845E0
2.1328E2	-7.5092E0
2.1374E2	-13.426E0
2.1419E2	2.5031E0
2.1464E2	-34.133E0
2.1509E2	-25.031E0
2.1555E2	-30.947E0
2.160E2	-24.348E0
2.1645E2	-26.396E0
2.169E2	-33.678E0
2.1736E2	-11.833E0
2.1781E2	12.97E0
2.1826E2	-17.977E0
2.1872E2	-16.384E0
2.1917E2	-14.108E0
2.1962E2	-15.018E0
2.2007E2	-9.7847E0
2.2053E2	-12.288E0
2.2098E2	8.8745E0
2.2143E2	-15.018E0
2.2188E2	-26.624E0
2.2234E2	-8.1919E0
2.2279E2	-22.528E0
2.2324E2	-23.438E0
2.2369E2	-23.665E0
2.2414E2	-14.108E0
2.246E2	-23.893E0
2.2505E2	-27.761E0
2.255E2	-26.396E0
2.2595E2	-20.707E0
2.2641E2	-16.611E0
2.2686E2	-20.707E0
2.2731E2	-25.486E0
2.2776E2	-2.7306E0
2.2821E2	-24.803E0
2.2867E2	-7.9643E0
2.2912E2	-13.198E0
2.2957E2	-30.492E0
2.3002E2	-10.24E0
2.3047E2	-18.204E0
2.3093E2	-13.426E0
2.3138E2	-12.743E0
2.3183E2	-27.079E0
2.3228E2	-33.223E0
2.3273E2	-2.048E0
2.3318E2	2.7306E0
2.3364E2	-15.246E0
2.3409E2	91.021E-2
2.3454E2	-1.1378E0
2.3499E2	-16.156E0
2.3544E2	-26.851E0
2.3589E2	-10.012E0
2.3635E2	-12.06E0
2.368E2	-11.833E0
2.3725E2	-31.175E0
2.377E2	-12.743E0
2.3815E2	-27.989E0
2.386E2	-30.947E0
2.3905E2	-23.438E0
2.3951E2	-24.348E0
2.3996E2	-9.1021E0
2.4041E2	-21.845E0
2.4086E2	-20.935E0
2.4131E2	-34.588E0
2.4176E2	-36.408E0
2.4221E2	7.5092E0
2.4266E2	12.515E0
2.4312E2	-15.474E0
2.4357E2	-25.258E0
2.4402E2	-28.444E0
2.4447E2	-27.761E0
2.4492E2	-28.216E0
2.4537E2	-21.617E0
2.4582E2	-3.4133E0
2.4627E2	-17.522E0
2.4672E2	-3.1857E0
2.4717E2	-13.881E0
2.4763E2	-5.0061E0
2.4808E2	-5.6888E0
2.4853E2	-23.21E0
2.4898E2	-21.617E0
2.4943E2	-20.025E0
2.4988E2	22.755E-2
2.5033E2	-31.402E0
2.5078E2	-16.384E0
2.5123E2	-9.5572E0
2.5168E2	-11.833E0
2.5213E2	-24.121E0
2.5258E2	-26.624E0
2.5303E2	-9.7847E0
2.5348E2	-7.5092E0
2.5393E2	-13.426E0
2.5438E2	-8.4194E0
2.5484E2	-6.8266E0
2.5529E2	12.515E0
2.5574E2	-39.594E0
2.5619E2	-4.0959E0
2.5664E2	-19.797E0
2.5709E2	-11.605E0
2.5754E2	-30.037E0
2.5799E2	-20.252E0
2.5844E2	-1.8204E0
2.5889E2	-7.9643E0
2.5934E2	-5.4613E0
2.5979E2	-14.336E0
2.6024E2	-12.515E0
2.6069E2	-11.833E0
2.6114E2	-6.8266E0
2.6159E2	-23.21E0
2.6204E2	-18.204E0
2.6249E2	-24.803E0
2.6294E2	-39.594E0
2.6339E2	-12.288E0
2.6384E2	-15.474E0
2.6429E2	-25.941E0
2.6474E2	1.8204E0
2.6519E2	-17.749E0
2.6564E2	-21.845E0
2.6609E2	-27.761E0
2.6654E2	-14.336E0
2.6699E2	-11.15E0
2.6744E2	-16.611E0
2.6789E2	3.4133E0
2.6833E2	2.7306E0
2.6878E2	-25.031E0
2.6923E2	-27.306E0
2.6968E2	-15.701E0
2.7013E2	-21.617E0
2.7058E2	-9.7847E0
2.7103E2	-28.899E0
2.7148E2	-26.168E0
2.7193E2	5.2337E0
2.7238E2	-10.467E0
2.7283E2	-19.797E0
2.7328E2	-29.354E0
2.7373E2	-15.929E0
2.7418E2	-4.551E0
2.7463E2	-19.342E0
2.7507E2	-2.5031E0
2.7552E2	-24.803E0
2.7597E2	-20.252E0
2.7642E2	-25.486E0
2.7687E2	-27.989E0
2.7732E2	-20.252E0
2.7777E2	-17.066E0
2.7822E2	-8.8745E0
2.7867E2	-7.7368E0
2.7912E2	-27.989E0
2.7956E2	-30.72E0
2.8001E2	-3.6408E0
2.8046E2	-5.2337E0
2.8091E2	-12.515E0
2.8136E2	-15.474E0
2.8181E2	-16.611E0
2.8226E2	-26.168E0
2.8271E2	-22.983E0
2.8315E2	-32.54E0
2.836E2	-16.611E0
2.8405E2	-34.36E0
2.845E2	4.3235E0
2.8495E2	-12.288E0
2.854E2	-27.989E0
2.8585E2	-23.438E0
2.8629E2	8.4194E0
2.8674E2	-21.162E0
2.8719E2	-11.15E0
2.8764E2	-13.653E0
2.8809E2	45.51E-2
2.8854E2	-28.444E0
2.8898E2	-6.3715E0
2.8943E2	-24.803E0
2.8988E2	-22.755E0
2.9033E2	-10.012E0
2.9078E2	-22.073E0
2.9122E2	-12.743E0
2.9167E2	-17.522E0
2.9212E2	-7.0541E0
2.9257E2	-6.1439E0
2.9302E2	-20.707E0
2.9346E2	-17.749E0
2.9391E2	-20.707E0
2.9436E2	-7.2817E0
2.9481E2	-5.2337E0
2.9526E2	-16.384E0
2.957E2	-4.3235E0
2.9615E2	-30.037E0
2.966E2	-8.647E0
2.9705E2	-9.3296E0
2.9749E2	-9.3296E0
2.9794E2	-18.204E0
2.9839E2	-20.707E0
2.9884E2	-11.15E0
2.9928E2	-22.528E0
2.9973E2	-30.037E0
3.0018E2	-28.444E0
3.0063E2	5.6888E0
3.0107E2	-18.204E0
3.0152E2	-6.599E0
3.0197E2	-25.713E0
3.0242E2	-20.935E0
3.0286E2	4.3235E0
3.0331E2	-10.012E0
3.0376E2	11.605E0
3.0421E2	-18.659E0
3.0465E2	-1.8204E0
3.051E2	-19.342E0
3.0555E2	-30.72E0
3.0599E2	-18.432E0
3.0644E2	-1.3653E0
3.0689E2	-6.8266E0
3.0734E2	-25.258E0
3.0778E2	-1.5929E0
3.0823E2	5.0061E0
3.0868E2	-17.749E0
3.0912E2	-22.30E0
3.0957E2	-7.0541E0
3.1002E2	-41.414E0
3.1046E2	-17.066E0
3.1091E2	-16.611E0
3.1136E2	-17.294E0
3.118E2	-4.0959E0
3.1225E2	-9.5572E0
3.127E2	-14.108E0
3.1314E2	-12.515E0
3.1359E2	-23.893E0
3.1404E2	-27.761E0
3.1448E2	-15.246E0
3.1493E2	-22.30E0
3.1538E2	-21.39E0
3.1582E2	29.127E0
3.1627E2	4.0959E0
3.1672E2	-11.833E0
3.1716E2	-33.223E0
3.1761E2	-23.893E0
3.1805E2	-36.408E0
3.185E2	2.7306E0
3.1895E2	-27.079E0
3.1939E2	-91.021E-2
3.1984E2	-24.348E0
3.2029E2	1.1378E0
3.2073E2	-25.941E0
3.2118E2	-41.642E0
3.2162E2	-30.037E0
3.2207E2	-40.732E0
3.2252E2	-38.229E0
3.2296E2	-5.6888E0
3.2341E2	-20.025E0
3.2385E2	-21.617E0
3.243E2	3.6408E0
3.2474E2	-25.031E0
3.2519E2	-7.5092E0
3.2564E2	-18.432E0
3.2608E2	-15.474E0
3.2653E2	-34.133E0
3.2697E2	-5.9164E0
3.2742E2	-7.5092E0
3.2786E2	-7.5092E0
3.2831E2	-34.588E0
3.2876E2	-12.06E0
3.292E2	-13.426E0
3.2965E2	-21.162E0
3.3009E2	-12.743E0
3.3054E2	-16.156E0
3.3098E2	-35.726E0
3.3143E2	13.198E0
3.3187E2	-2.2755E0
3.3232E2	-5.4613E0
3.3276E2	1.3653E0
3.3321E2	-32.085E0
3.3365E2	-68.266E-2
3.341E2	-29.127E0
3.3454E2	-1.1378E0
3.3499E2	6.1439E0
3.3543E2	10.467E0
3.3588E2	22.755E-2
3.3632E2	68.266E-2
3.3677E2	-21.617E0
3.3721E2	-27.761E0
3.3766E2	-7.9643E0
3.381E2	-16.156E0
3.3855E2	-23.438E0
3.3899E2	-18.432E0
3.3944E2	-1.8204E0
3.3988E2	-15.701E0
3.4033E2	-17.749E0
3.4077E2	-39.367E0
3.4122E2	-45.51E-2
3.4166E2	-24.121E0
3.4211E2	-4.0959E0
3.4255E2	-14.108E0
3.430E2	-17.977E0
3.4344E2	-10.012E0
3.4388E2	-14.791E0
3.4433E2	-11.605E0
3.4477E2	-29.809E0
3.4522E2	-27.534E0
3.4566E2	-35.953E0
3.4611E2	-10.012E0
3.4655E2	-23.893E0
3.470E2	-24.348E0
3.4744E2	-7.0541E0
3.4788E2	-8.4194E0
3.4833E2	-36.408E0
3.4877E2	-15.701E0
3.4922E2	-14.791E0
3.4966E2	-30.947E0
3.501E2	-10.24E0
3.5055E2	22.755E-2
3.5099E2	-8.1919E0
3.5144E2	-16.611E0
3.5188E2	-5.2337E0
3.5232E2	-11.833E0
3.5277E2	-5.4613E0
3.5321E2	-37.546E0
3.5365E2	-22.073E0
3.541E2	-17.522E0
3.5454E2	-13.198E0
3.5499E2	-37.546E0
3.5543E2	-16.611E0
3.5587E2	-30.492E0
3.5632E2	-5.9164E0
3.5676E2	-20.252E0
3.572E2	-12.288E0
3.5765E2	-33.45E0
3.5809E2	-26.168E0
3.5853E2	-43.235E0
3.5898E2	-18.659E0
3.5942E2	-18.887E0
3.5986E2	-7.7368E0
3.6031E2	-25.941E0
3.6075E2	-6.3715E0
3.6119E2	-12.515E0
3.6164E2	-13.198E0
3.6208E2	-10.467E0
3.6252E2	-23.438E0
3.6297E2	-14.108E0
3.6341E2	-10.467E0
3.6385E2	-17.294E0
3.6429E2	-12.743E0
3.6474E2	-16.839E0
3.6518E2	-17.749E0
3.6562E2	-22.073E0
3.6607E2	-26.624E0
3.6651E2	-2.9582E0
3.6695E2	-5.2337E0
3.6739E2	-32.995E0
3.6784E2	-22.528E0
3.6828E2	-12.06E0
3.6872E2	-12.743E0
3.6916E2	-12.97E0
3.6961E2	5.4612E0
3.7005E2	-3.8684E0
3.7049E2	-20.935E0
3.7093E2	-5.9164E0
3.7138E2	-13.881E0
3.7182E2	-14.563E0
3.7226E2	9.5572E0
3.727E2	-9.5572E0
3.7315E2	-32.995E0
3.7359E2	-3.6408E0
3.7403E2	-14.563E0
3.7447E2	-16.611E0
3.7492E2	-7.2817E0
3.7536E2	-15.246E0
3.758E2	-1.8204E0
3.7624E2	4.0959E0
3.7668E2	-8.1919E0
3.7713E2	-25.486E0
3.7757E2	23.665E0
3.7801E2	-17.977E0
3.7845E2	-68.266E-2
3.7889E2	-25.031E0
3.7934E2	3.1857E0
3.7978E2	-11.378E0
3.8022E2	-6.8266E0
3.8066E2	-21.845E0
3.811E2	2.2755E0
3.8154E2	-15.018E0
3.8199E2	-11.378E0
3.8243E2	-13.426E0
3.8287E2	-10.695E0
3.8331E2	-31.175E0
3.8375E2	-14.791E0
3.8419E2	-13.881E0
3.8463E2	-22.528E0
3.8508E2	-24.576E0
3.8552E2	-13.198E0
3.8596E2	-27.079E0
3.864E2	-10.922E0
3.8684E2	-22.755E0
3.8728E2	-30.72E0
3.8772E2	-23.665E0
3.8816E2	-27.079E0
3.8861E2	1.5929E0
3.8905E2	-5.2337E0
3.8949E2	-5.6888E0
3.8993E2	-17.749E0
3.9037E2	-25.031E0
3.9081E2	1.3653E0
3.9125E2	-15.474E0
3.9169E2	-2.7306E0
3.9213E2	-7.5092E0
3.9257E2	-10.467E0
3.9301E2	-20.252E0
3.9346E2	-23.21E0
3.939E2	-10.923E0
3.9434E2	-28.444E0
3.9478E2	-12.97E0
3.9522E2	-21.39E0
3.9566E2	-31.63E0
3.961E2	-22.755E0
3.9654E2	-18.659E0
3.9698E2	20.48E0
3.9742E2	1.8204E0
3.9786E2	-14.563E0
3.983E2	-6.8266E0
3.9874E2	-11.378E0
3.9918E2	-14.336E0
3.9962E2	-24.576E0
4.0006E2	91.021E-2
4.005E2	-15.701E0
4.0094E2	-40.732E0
4.0138E2	4.7786E0
4.0182E2	-29.127E0
4.0226E2	-18.432E0
4.027E2	-12.97E0
4.0314E2	-16.611E0
4.0358E2	-22.983E0
4.0402E2	-5.6888E0
4.0446E2	4.7786E0
4.049E2	-8.8745E0
4.0534E2	-30.492E0
4.0578E2	-30.264E0
4.0622E2	-23.665E0
4.0666E2	-28.216E0
4.071E2	-7.7368E0
4.0754E2	-24.803E0
4.0798E2	-24.348E0
4.0842E2	-10.012E0
4.0886E2	-4.551E0
4.093E2	-7.9643E0
4.0974E2	-9.7847E0
4.1018E2	8.1919E0
4.1062E2	-20.707E0
4.1106E2	-7.7368E0
4.115E2	-22.073E0
4.1194E2	-1.8204E0
4.1237E2	-18.659E0
4.1281E2	-2.5031E0
4.1325E2	-4.0959E0
4.1369E2	-22.30E0
4.1413E2	-10.922E0
4.1457E2	23.665E0
4.1501E2	11.15E0
4.1545E2	-1.1378E0
4.1589E2	-13.426E0
4.1633E2	20.48E0
4.1676E2	18.432E0
4.172E2	-3.6408E0
4.1764E2	12.515E0
4.1808E2	-7.2817E0
4.1852E2	19.114E0
4.1896E2	2.7306E0
4.194E2	9.5572E0
4.1984E2	2.9582E0
4.2027E2	22.983E0
4.2071E2	16.384E0
4.2115E2	13.198E0
4.2159E2	25.486E0
4.2203E2	25.941E0
4.2247E2	20.252E0
4.2291E2	32.085E0
4.2334E2	33.45E0
4.2378E2	28.216E0
4.2422E2	41.187E0
4.2466E2	24.803E0
4.251E2	46.193E0
4.2554E2	38.229E0
4.2597E2	21.39E0
4.2641E2	58.026E0
4.2685E2	60.301E0
4.2729E2	77.368E0
4.2773E2	52.565E0
4.2816E2	64.625E0
4.286E2	76.685E0
4.2904E2	77.368E0
4.2948E2	1.1241E2
4.2991E2	87.835E0
4.3035E2	95.799E0
4.3079E2	96.255E0
4.3123E2	1.0331E2
4.3167E2	93.979E0
4.321E2	1.2538E2
4.3254E2	1.0649E2
4.3298E2	1.2106E2
4.3342E2	1.3221E2
4.3385E2	1.429E2
4.3429E2	1.3926E2
4.3473E2	1.4154E2
4.3517E2	1.5223E2
4.356E2	1.5565E2
4.3604E2	1.5405E2
4.3648E2	1.8386E2
4.3692E2	1.9524E2
4.3735E2	2.032E2
4.3779E2	2.0616E2
4.3823E2	2.1117E2
4.3866E2	2.3461E2
4.391E2	2.5281E2
4.3954E2	2.3142E2
4.3997E2	2.6305E2
4.4041E2	2.6328E2
4.4085E2	2.7329E2
4.4129E2	2.965E2
4.4172E2	2.8398E2
4.4216E2	3.1197E2
4.426E2	3.0128E2
4.4303E2	3.1038E2
4.4347E2	3.1197E2
4.4391E2	3.3837E2
4.4434E2	3.3541E2
4.4478E2	3.452E2
4.4522E2	3.659E2
4.4565E2	3.4338E2
4.4609E2	3.6226E2
4.4653E2	3.5748E2
4.4696E2	3.7159E2
4.474E2	3.8047E2
4.4783E2	3.5703E2
4.4827E2	3.593E2
4.4871E2	3.6431E2
4.4914E2	3.6613E2
4.4958E2	3.8183E2
4.5002E2	3.5976E2
4.5045E2	3.4656E2
4.5089E2	3.5475E2
4.5132E2	3.6681E2
4.5176E2	3.3154E2
4.522E2	3.5703E2
4.5263E2	3.2813E2
4.5307E2	3.295E2
4.535E2	3.1493E2
4.5394E2	3.4906E2
4.5437E2	2.965E2
4.5481E2	3.229E2
4.5525E2	3.1948E2
4.5568E2	3.0469E2
4.5612E2	3.1926E2
4.5655E2	2.9582E2
4.5699E2	2.9058E2
4.5742E2	2.9127E2
4.5786E2	2.6146E2
4.5829E2	2.8603E2
4.5873E2	2.5804E2
4.5917E2	2.3779E2
4.596E2	2.4689E2
4.6004E2	2.5531E2
4.6047E2	2.8239E2
4.6091E2	2.478E2
4.6134E2	2.4052E2
4.6178E2	2.7079E2
4.6221E2	2.4507E2
4.6265E2	2.4894E2
4.6308E2	2.4189E2
4.6352E2	2.3643E2
4.6395E2	1.9865E2
4.6439E2	2.3119E2
4.6482E2	2.2232E2
4.6526E2	2.0958E2
4.6569E2	2.1481E2
4.6613E2	1.9205E2
4.6656E2	2.1322E2
4.670E2	2.2186E2
4.6743E2	1.9865E2
4.6787E2	2.1003E2
4.683E2	2.1344E2
4.6873E2	2.114E2
4.6917E2	2.0616E2
4.696E2	2.1435E2
4.7004E2	1.8295E2
4.7047E2	1.9706E2
4.7091E2	1.9319E2
4.7134E2	2.0047E2
4.7177E2	1.9296E2
4.7221E2	1.9046E2
4.7264E2	1.7681E2
4.7308E2	2.0389E2
4.7351E2	1.850E2
4.7395E2	1.8659E2
4.7438E2	1.8409E2
4.7481E2	1.9387E2
4.7525E2	1.8659E2
4.7568E2	2.1231E2
4.7612E2	2.0366E2
4.7655E2	2.0798E2
4.7698E2	1.9274E2
4.7742E2	2.0616E2
4.7785E2	1.8614E2
4.7828E2	2.0662E2
4.7872E2	2.1868E2
4.7915E2	2.0207E2
4.7959E2	2.1504E2
4.8002E2	2.3552E2
4.8045E2	2.2027E2
4.8089E2	2.2892E2
4.8132E2	2.2801E2
4.8175E2	2.1071E2
4.8219E2	2.0275E2
4.8262E2	2.2277E2
4.8305E2	2.2755E2
4.8349E2	2.5076E2
4.8392E2	2.4394E2
4.8435E2	2.2232E2
4.8479E2	2.6305E2
4.8522E2	2.4029E2
4.8565E2	2.676E2
4.8608E2	2.4894E2
4.8652E2	2.5713E2
4.8695E2	2.3006E2
4.8738E2	2.6965E2
4.8782E2	2.7761E2
4.8825E2	2.5918E2
4.8868E2	2.626E2
4.8911E2	2.6897E2
4.8955E2	2.8717E2
4.8998E2	2.7375E2
4.9041E2	3.0242E2
4.9084E2	3.0993E2
4.9128E2	3.0242E2
4.9171E2	2.9946E2
4.9214E2	2.9514E2
4.9257E2	3.2608E2
4.9301E2	3.4497E2
4.9344E2	3.3177E2
4.9387E2	3.3564E2
4.943E2	3.3314E2
4.9474E2	3.5202E2
4.9517E2	3.5748E2
4.956E2	3.6522E2
4.9603E2	3.5817E2
4.9647E2	3.2904E2
4.969E2	3.4884E2
4.9733E2	3.8661E2
4.9776E2	3.6841E2
4.9819E2	3.7228E2
4.9862E2	3.5726E2
4.9906E2	3.741E2
4.9949E2	3.7023E2
4.9992E2	3.8047E2
5.0035E2	3.9298E2
5.0078E2	3.8183E2
5.0122E2	4.0072E2
5.0165E2	3.8798E2
5.0208E2	3.9298E2
5.0251E2	3.8593E2
5.0294E2	3.791E2
5.0337E2	4.0026E2
5.038E2	4.105E2
5.0424E2	3.9549E2
5.0467E2	3.9389E2
5.051E2	4.0504E2
5.0553E2	4.0959E2
5.0596E2	3.9844E2
5.0639E2	3.9275E2
5.0682E2	4.1483E2
5.0725E2	3.8911E2
5.0769E2	4.1346E2
5.0812E2	3.923E2
5.0855E2	4.1642E2
5.0898E2	4.2666E2
5.0941E2	4.3485E2
5.0984E2	4.2529E2
5.1027E2	4.3121E2
5.107E2	4.055E2
5.1113E2	4.3462E2
5.1156E2	4.2871E2
5.1199E2	4.2666E2
5.1242E2	4.3849E2
5.1285E2	4.1597E2
5.1329E2	4.2006E2
5.1372E2	4.014E2
5.1415E2	4.0982E2
5.1458E2	4.0117E2
5.1501E2	4.2643E2
5.1544E2	4.0482E2
5.1587E2	4.1619E2
5.163E2	4.2347E2
5.1673E2	4.146E2
5.1716E2	4.2234E2
5.1759E2	4.3326E2
5.1802E2	4.3189E2
5.1845E2	4.2484E2
5.1888E2	4.1073E2
5.1931E2	4.3144E2
5.1974E2	4.3394E2
5.2017E2	4.328E2
5.206E2	4.1574E2
5.2103E2	4.2438E2
5.2146E2	4.4418E2
5.2189E2	4.4441E2
5.2232E2	4.3576E2
5.2275E2	4.2643E2
5.2318E2	4.2416E2
5.2361E2	4.2939E2
5.2404E2	4.2734E2
5.2447E2	4.3053E2
5.2489E2	4.4031E2
5.2532E2	4.2916E2
5.2575E2	4.2552E2
5.2618E2	4.5556E2
5.2661E2	4.3417E2
5.2704E2	4.5215E2
5.2747E2	4.369E2
5.279E2	4.1733E2
5.2833E2	4.5897E2
5.2876E2	4.6193E2
5.2919E2	4.3804E2
5.2962E2	4.551E2
5.3004E2	4.5783E2
5.3047E2	4.526E2
5.309E2	4.617E2
5.3133E2	4.501E2
5.3176E2	4.3758E2
5.3219E2	4.551E2
5.3262E2	4.7194E2
5.3305E2	4.7786E2
5.3348E2	4.6739E2
5.339E2	4.6284E2
5.3433E2	4.6534E2
5.3476E2	5.1814E2
5.3519E2	4.7809E2
5.3562E2	4.9402E2
5.3605E2	4.8355E2
5.3647E2	4.7308E2
5.369E2	4.8855E2
5.3733E2	4.6102E2
5.3776E2	4.8059E2
5.3819E2	4.8582E2
5.3862E2	4.8742E2
5.3904E2	5.0107E2
5.3947E2	5.0152E2
5.399E2	4.8946E2
5.4033E2	4.9083E2
5.4076E2	4.8287E2
5.4118E2	4.7558E2
5.4161E2	5.0107E2
5.4204E2	4.8605E2
5.4247E2	5.0585E2
5.4289E2	4.8355E2
5.4332E2	5.1245E2
5.4375E2	5.0972E2
5.4418E2	5.1222E2
5.4461E2	5.0744E2
5.4503E2	5.2041E2
5.4546E2	4.9333E2
5.4589E2	4.8924E2
5.4632E2	5.0835E2
5.4674E2	5.1154E2
5.4717E2	5.3657E2
5.476E2	5.0061E2
5.4802E2	5.2314E2
5.4845E2	5.0221E2
5.4888E2	5.286E2
5.4931E2	5.2633E2
5.4973E2	5.1222E2
5.5016E2	5.0517E2
5.5059E2	5.3771E2
5.5101E2	5.0994E2
5.5144E2	5.2951E2
5.5187E2	5.170E2
5.5229E2	5.0039E2
5.5272E2	5.1723E2
5.5315E2	5.3042E2
5.5357E2	5.2542E2
5.540E2	5.5159E2
5.5443E2	5.1905E2
5.5485E2	5.1131E2
5.5528E2	5.3384E2
5.5571E2	5.3953E2
5.5613E2	5.4499E2
5.5656E2	5.5181E2
5.5699E2	5.1586E2
5.5741E2	5.1063E2
5.5784E2	5.170E2
5.5827E2	5.2451E2
5.5869E2	5.2587E2
5.5912E2	5.1905E2
5.5954E2	5.170E2
5.5997E2	5.286E2
5.604E2	5.2883E2
5.6082E2	5.352E2
5.6125E2	5.2701E2
5.6167E2	4.997E2
5.621E2	5.3429E2
5.6253E2	5.1199E2
5.6295E2	5.145E2
5.6338E2	5.0426E2
5.638E2	5.2997E2
5.6423E2	5.1723E2
5.6465E2	5.0312E2
5.6508E2	5.2314E2
5.6551E2	5.1017E2
5.6593E2	5.0721E2
5.6636E2	4.9106E2
5.6678E2	4.9083E2
5.6721E2	5.0926E2
5.6763E2	4.9629E2
5.6806E2	4.9379E2
5.6848E2	4.7035E2
5.6891E2	4.9584E2
5.6933E2	5.2405E2
5.6976E2	5.1791E2
5.7018E2	5.0221E2
5.7061E2	4.9151E2
5.7103E2	5.0699E2
5.7146E2	4.9629E2
5.7188E2	5.129E2
5.7231E2	4.9447E2
5.7273E2	5.3202E2
5.7316E2	5.1563E2
5.7358E2	5.1654E2
5.7401E2	5.1973E2
5.7443E2	5.2428E2
5.7486E2	5.1176E2
5.7528E2	5.1745E2
5.7571E2	5.0517E2
5.7613E2	5.0972E2
5.7655E2	4.906E2
5.7698E2	5.2041E2
5.774E2	4.8514E2
5.7783E2	4.9515E2
5.7825E2	4.840E2
5.7868E2	5.0494E2
5.791E2	4.9037E2
5.7952E2	4.9197E2
5.7995E2	4.8628E2
5.8037E2	4.9242E2
5.808E2	4.8514E2
5.8122E2	4.8127E2
5.8164E2	4.9515E2
5.8207E2	4.8309E2
5.8249E2	4.9993E2
5.8291E2	4.9902E2
5.8334E2	4.9925E2
5.8376E2	4.8082E2
5.8419E2	4.8605E2
5.8461E2	4.6944E2
5.8503E2	4.8446E2
5.8546E2	4.7467E2
5.8588E2	4.7399E2
5.863E2	4.7763E2
5.8673E2	4.6853E2
5.8715E2	4.7126E2
5.8757E2	4.7217E2
5.880E2	5.0357E2
5.8842E2	4.7285E2
5.8884E2	4.7217E2
5.8927E2	4.7172E2
5.8969E2	4.5692E2
5.9011E2	4.6671E2
5.9054E2	4.501E2
5.9096E2	4.4828E2
5.9138E2	4.4145E2
5.918E2	4.6375E2
5.9223E2	4.633E2
5.9265E2	4.2575E2
5.9307E2	4.7718E2
5.9349E2	4.5556E2
5.9392E2	4.3895E2
5.9434E2	4.4987E2
5.9476E2	4.8173E2
5.9519E2	4.6261E2
5.9561E2	4.5465E2
5.9603E2	4.6739E2
5.9645E2	4.6671E2
5.9687E2	4.3963E2
5.973E2	4.6193E2
5.9772E2	4.5124E2
5.9814E2	4.4009E2
5.9856E2	4.5419E2
5.9899E2	4.5351E2
5.9941E2	4.460E2
5.9983E2	4.6398E2
6.0025E2	4.4168E2
6.0067E2	4.4191E2
6.011E2	4.5419E2
6.0152E2	4.4691E2
6.0194E2	4.4987E2
6.0236E2	4.4304E2
6.0278E2	4.5169E2
6.032E2	4.5806E2
6.0363E2	4.3394E2
6.0405E2	4.4486E2
6.0447E2	4.4486E2
6.0489E2	4.3258E2
6.0531E2	4.4327E2
6.0573E2	4.2734E2
6.0615E2	4.4304E2
6.0658E2	4.5055E2
6.070E2	4.4691E2
6.0742E2	4.2871E2
6.0784E2	4.0982E2
6.0826E2	4.2006E2
6.0868E2	4.0186E2
6.091E2	4.2575E2
6.0952E2	4.1733E2
6.0995E2	4.1915E2
6.1037E2	4.0914E2
6.1079E2	3.964E2
6.1121E2	4.1983E2
6.1163E2	4.1323E2
6.1205E2	4.2939E2
6.1247E2	4.1528E2
6.1289E2	4.0914E2
6.1331E2	4.0254E2
6.1373E2	4.3508E2
6.1415E2	3.964E2
6.1457E2	4.014E2
6.1499E2	3.9162E2
6.1541E2	4.0254E2
6.1583E2	3.8069E2
6.1625E2	3.5748E2
6.1667E2	3.6886E2
6.1709E2	3.6954E2
6.1751E2	3.6499E2
6.1794E2	3.7273E2
6.1836E2	3.6249E2
6.1878E2	3.609E2
6.192E2	3.5498E2
6.1962E2	3.5157E2
6.2003E2	3.5794E2
6.2045E2	3.3655E2
6.2087E2	3.6477E2
6.2129E2	3.6636E2
6.2171E2	3.2426E2
6.2213E2	3.5589E2
6.2255E2	3.4019E2
6.2297E2	3.4975E2
6.2339E2	3.6704E2
6.2381E2	3.4929E2
6.2423E2	3.7159E2
6.2465E2	3.5498E2
6.2507E2	3.5225E2
6.2549E2	3.5521E2
6.2591E2	3.6363E2
6.2633E2	3.6886E2
6.2675E2	3.7796E2
6.2717E2	3.5635E2
6.2759E2	3.7387E2
6.280E2	3.6818E2
6.2842E2	3.964E2
6.2884E2	3.9162E2
6.2926E2	3.5885E2
6.2968E2	3.6863E2
6.301E2	3.8889E2
6.3052E2	3.6795E2
6.3094E2	3.8297E2
6.3135E2	3.7933E2
6.3177E2	3.9776E2
6.3219E2	3.9617E2
6.3261E2	4.1346E2
6.3303E2	4.0846E2
6.3345E2	4.1551E2
6.3387E2	3.7364E2
6.3428E2	4.1073E2
6.347E2	4.2052E2
6.3512E2	4.4054E2
6.3554E2	4.4623E2
6.3596E2	4.4213E2
6.3638E2	4.4873E2
6.3679E2	4.7854E2
6.3721E2	4.5237E2
6.3763E2	5.1836E2
6.3805E2	4.906E2
6.3847E2	5.1518E2
6.3888E2	5.0744E2
6.393E2	5.3816E2
6.3972E2	5.4977E2
6.4014E2	5.3088E2
6.4055E2	5.5159E2
6.4097E2	5.8117E2
6.4139E2	5.9095E2
6.4181E2	5.8435E2
6.4222E2	5.8071E2
6.4264E2	6.0802E2
6.4306E2	6.3032E2
6.4348E2	6.4329E2
6.4389E2	6.4784E2
6.4431E2	7.0245E2
6.4473E2	6.9062E2
6.4515E2	7.0291E2
6.4556E2	7.2316E2
6.4598E2	7.3636E2
6.464E2	7.6617E2
6.4681E2	7.7755E2
6.4723E2	8.2647E2
6.4765E2	8.0758E2
6.4806E2	8.3512E2
6.4848E2	8.6902E2
6.489E2	8.9428E2
6.4931E2	9.0998E2
6.4973E2	9.3228E2
6.5015E2	9.316E2
6.5056E2	9.7051E2
6.5098E2	9.828E2
6.514E2	9.9713E2
6.5181E2	10.169E2
6.5223E2	10.599E2
6.5265E2	10.982E2
6.5306E2	11.514E2
6.5348E2	11.906E2
6.5389E2	12.122E2
6.5431E2	12.081E2
6.5473E2	12.59E2
6.5514E2	12.927E2
6.5556E2	13.116E2
6.5597E2	13.448E2
6.5639E2	13.719E2
6.5681E2	14.286E2
6.5722E2	14.675E2
6.5764E2	14.937E2
6.5805E2	15.794E2
6.5847E2	16.493E2
6.5889E2	17.13E2
6.593E2	17.758E2
6.5972E2	18.593E2
6.6013E2	18.218E2
6.6055E2	19.376E2
6.6096E2	19.792E2
6.6138E2	20.355E2
6.6179E2	21.47E2
6.6221E2	22.161E2
6.6262E2	22.985E2
6.6304E2	23.902E2
6.6345E2	24.689E2
6.6387E2	26.077E2
6.6428E2	26.965E2
6.647E2	28.571E2
6.6511E2	28.567E2
6.6553E2	28.546E2
6.6594E2	29.32E2
6.6636E2	30.157E2
6.6677E2	31.596E2
6.6719E2	32.158E2
6.676E2	32.69E2
6.6802E2	32.854E2
6.6843E2	33.901E2
6.6885E2	34.97E2
6.6926E2	35.987E2
6.6967E2	37.002E2
6.7009E2	37.071E2
6.705E2	36.675E2
6.7092E2	38.368E2
6.7133E2	40.764E2
6.7175E2	40.75E2
6.7216E2	42.029E2
6.7257E2	42.941E2
6.7299E2	44.48E2
6.734E2	45.053E2
6.7382E2	45.287E2
6.7423E2	46.575E2
6.7464E2	48.339E2
6.7506E2	48.676E2
6.7547E2	50.416E2
6.7588E2	52.214E2
6.763E2	54.119E2
6.7671E2	56.012E2
6.7713E2	56.915E2
6.7754E2	58.064E2
6.7795E2	58.301E2
6.7837E2	60.101E2
6.7878E2	62.495E2
6.7919E2	64.343E2
6.7961E2	66.98E2
6.8002E2	69.342E2
6.8043E2	70.955E2
6.8085E2	72.862E2
6.8126E2	75.302E2
6.8167E2	79.882E2
6.8208E2	85.043E2
6.825E2	86.57E2
6.8291E2	88.543E2
6.8332E2	91.977E2
6.8374E2	94.603E2
6.8415E2	99.003E2
6.8456E2	1.0509E4
6.8497E2	1.1004E4
6.8539E2	1.1435E4
6.858E2	1.1714E4
6.8621E2	1.1814E4
6.8662E2	1.242E4
6.8704E2	1.2619E4
6.8745E2	1.2945E4
6.8786E2	1.3274E4
6.8827E2	1.383E4
6.8869E2	1.4352E4
6.891E2	1.5134E4
6.8951E2	1.549E4
6.8992E2	1.5962E4
6.9033E2	1.6447E4
6.9075E2	1.6818E4
6.9116E2	1.7382E4
6.9157E2	1.7917E4
6.9198E2	1.8011E4
6.9239E2	1.8795E4
6.928E2	1.9945E4
6.9322E2	2.0815E4
6.9363E2	2.1226E4
6.9404E2	2.2127E4
6.9445E2	2.2674E4
6.9486E2	2.3108E4
6.9527E2	2.3449E4
6.9568E2	2.3436E4
6.961E2	2.4162E4
6.9651E2	2.5327E4
6.9692E2	2.6272E4
6.9733E2	2.6521E4
6.9774E2	2.7522E4
6.9815E2	2.7664E4
6.9856E2	2.8401E4
6.9897E2	3.0271E4
6.9939E2	3.0382E4
6.998E2	3.0569E4
7.0021E2	3.0992E4
7.0062E2	3.183E4
7.0103E2	3.226E4
7.0144E2	3.2595E4
7.0185E2	3.3004E4
7.0226E2	3.3557E4
7.0267E2	3.3168E4
7.0308E2	3.3501E4
7.0349E2	3.4788E4
7.039E2	3.5976E4
7.0431E2	3.680E4
7.0472E2	3.7585E4
7.0513E2	3.8348E4
7.0554E2	3.9465E4
7.0595E2	4.0682E4
7.0636E2	4.2352E4
7.0677E2	4.3823E4
7.0718E2	4.4147E4
7.0759E2	4.4259E4
7.080E2	4.5305E4
7.0841E2	4.6475E4
7.0882E2	4.7573E4
7.0923E2	4.8055E4
7.0964E2	4.9384E4
7.1005E2	5.0146E4
7.1046E2	5.0922E4
7.1087E2	5.0353E4
7.1128E2	5.1576E4
7.1169E2	5.2324E4
7.121E2	5.3133E4
7.1251E2	5.3702E4
7.1292E2	5.469E4
7.1333E2	5.5396E4
7.1374E2	5.5892E4
7.1415E2	5.7104E4
7.1455E2	5.789E4
7.1496E2	5.863E4
7.1537E2	5.8943E4
7.1578E2	5.9295E4
7.1619E2	5.9286E4
7.166E2	5.9747E4
7.1701E2	5.9782E4
7.1742E2	6.0365E4
7.1783E2	6.0545E4
7.1823E2	6.036E4
7.1864E2	6.0722E4
7.1905E2	6.0604E4
7.1946E2	6.1586E4
7.1987E2	6.2121E4
7.2028E2	6.1989E4
7.2069E2	6.1763E4
7.2109E2	6.2204E4
7.215E2	6.2512E4
7.2191E2	6.1997E4
7.2232E2	6.1403E4
7.2273E2	6.1359E4
7.2313E2	6.1482E4
7.2354E2	6.1307E4
7.2395E2	6.0529E4
7.2436E2	6.0117E4
7.2477E2	5.9613E4
7.2517E2	5.9033E4
7.2558E2	5.8068E4
7.2599E2	5.7265E4
7.264E2	5.6616E4
7.268E2	5.5963E4
7.2721E2	5.5395E4
7.2762E2	5.412E4
7.2803E2	5.2606E4
7.2843E2	5.1066E4
7.2884E2	5.0213E4
7.2925E2	4.8339E4
7.2966E2	4.7139E4
7.3006E2	4.4304E4
7.3047E2	4.2475E4
7.3088E2	4.1586E4
7.3129E2	3.8656E4
7.3169E2	3.6992E4
7.321E2	3.5579E4
7.3251E2	3.3973E4
7.3291E2	3.2059E4
7.3332E2	3.0571E4
7.3373E2	2.8469E4
7.3413E2	2.7364E4
7.3454E2	2.5991E4
7.3495E2	2.4426E4
7.3535E2	2.3908E4
7.3576E2	2.2293E4
7.3617E2	2.0904E4
7.3657E2	1.936E4
7.3698E2	1.7965E4
7.3738E2	1.6898E4
7.3779E2	1.5547E4
7.382E2	1.443E4
7.386E2	1.3627E4
7.3901E2	1.2629E4
7.3942E2	1.1638E4
7.3982E2	1.1017E4
7.4023E2	1.0548E4
7.4063E2	98.669E2
7.4104E2	91.153E2
7.4145E2	84.037E2
7.4185E2	77.625E2
7.4226E2	69.642E2
7.4266E2	63.601E2
7.4307E2	59.983E2
7.4347E2	56.251E2
7.4388E2	52.189E2
7.4428E2	48.448E2
7.4469E2	44.832E2
7.4509E2	42.764E2
7.455E2	40.962E2
7.4591E2	37.667E2
7.4631E2	33.873E2
7.4672E2	31.131E2
7.4712E2	29.60E2
7.4753E2	27.086E2
7.4793E2	25.406E2
7.4834E2	23.62E2
7.4874E2	21.367E2
7.4915E2	20.168E2
7.4955E2	19.356E2
7.4995E2	17.856E2
7.5036E2	16.741E2
7.5076E2	15.205E2
7.5117E2	14.409E2
7.5157E2	13.266E2
7.5198E2	12.133E2
7.5238E2	11.209E2
7.5279E2	10.861E2
7.5319E2	10.201E2
7.5359E2	9.0361E2
7.540E2	8.6879E2
7.544E2	7.9325E2
7.5481E2	7.2271E2
7.5521E2	6.8835E2
7.5562E2	6.4784E2
7.5602E2	5.682E2
7.5642E2	5.5591E2
7.5683E2	5.393E2
7.5723E2	4.8969E2
7.5763E2	4.4486E2
7.5804E2	4.3189E2
7.5844E2	3.9253E2
7.5885E2	3.9913E2
7.5925E2	3.6158E2
7.5965E2	3.1971E2
7.6006E2	3.0879E2
7.6046E2	2.701E2
7.6086E2	2.6624E2
7.6127E2	2.519E2
7.6167E2	2.2619E2
7.6207E2	2.2528E2
7.6248E2	2.3233E2
7.6288E2	1.891E2
7.6328E2	1.9114E2
7.6368E2	1.8181E2
7.6409E2	1.652E2
7.6449E2	1.6634E2
7.6489E2	1.6293E2
7.653E2	1.4814E2
7.657E2	1.3676E2
7.661E2	1.4245E2
7.665E2	1.4609E2
7.6691E2	1.140E2
7.6731E2	1.0263E2
7.6771E2	97.847E0
7.6811E2	1.2038E2
7.6852E2	78.278E0
7.6892E2	93.979E0
7.6932E2	88.973E0
7.6972E2	96.71E0
7.7012E2	81.464E0
7.7053E2	64.17E0
7.7093E2	65.307E0
7.7133E2	56.433E0
7.7173E2	69.176E0
7.7213E2	59.846E0
7.7254E2	68.493E0
7.7294E2	55.523E0
7.7334E2	49.379E0
7.7374E2	32.768E0
7.7414E2	49.379E0
7.7454E2	44.373E0
7.7495E2	23.21E0
7.7535E2	49.834E0
7.7575E2	12.743E0
7.7615E2	33.45E0
7.7655E2	32.312E0
7.7695E2	34.36E0
7.7735E2	28.444E0
7.7775E2	15.929E0
7.7816E2	19.342E0
7.7856E2	36.636E0
7.7896E2	21.162E0
7.7936E2	13.653E0
7.7976E2	33.905E0
7.8016E2	25.031E0
7.8056E2	14.108E0
7.8096E2	14.336E0
7.8136E2	6.8266E0
7.8176E2	22.30E0
7.8216E2	12.288E0
7.8256E2	18.659E0
7.8296E2	19.114E0
7.8337E2	10.24E0
7.8377E2	7.2817E0
7.8417E2	9.5572E0
7.8457E2	14.108E0
7.8497E2	-2.048E0
7.8537E2	12.97E0
7.8577E2	-4.3235E0
7.8617E2	18.887E0
7.8657E2	1.3653E0
7.8697E2	15.246E0
7.8737E2	5.0061E0
7.8777E2	14.336E0
7.8817E2	-6.599E0
7.8857E2	-17.977E0
7.8896E2	-16.611E0
7.8936E2	-16.156E0
7.8976E2	-1.5929E0
7.9016E2	3.4133E0
7.9056E2	16.611E0
7.9096E2	5.6888E0
7.9136E2	-1.5929E0
7.9176E2	-10.012E0
7.9216E2	9.3296E0
7.9256E2	7.9643E0
7.9296E2	1.1378E0
7.9336E2	-19.797E0
7.9376E2	-13.426E0
7.9416E2	-17.294E0
7.9455E2	4.0959E0
7.9495E2	-5.2337E0
7.9535E2	-15.701E0
7.9575E2	-7.5092E0
7.9615E2	2.7306E0
7.9655E2	91.021E-2
7.9695E2	-5.2337E0
7.9734E2	-9.5572E0
7.9774E2	-9.1021E0
7.9814E2	-7.0541E0
7.9854E2	-24.576E0
7.9894E2	-7.5092E0
7.9934E2	-12.06E0
7.9973E2	91.021E-2
8.0013E2	-6.3715E0
8.0053E2	-4.551E0
8.0093E2	-14.108E0
8.0133E2	20.935E0
8.0172E2	-3.6408E0
8.0212E2	12.743E0
8.0252E2	-14.563E0
8.0292E2	-7.0541E0
8.0332E2	-11.378E0
8.0371E2	1.5929E0
8.0411E2	-15.701E0
8.0451E2	-12.06E0
8.0491E2	6.8266E0
8.053E2	-45.51E-2
8.057E2	-14.791E0
8.061E2	-91.021E-2
8.065E2	-20.252E0
8.0689E2	-14.791E0
8.0729E2	1.1378E0
8.0769E2	-2.2755E0
8.0808E2	-8.4194E0
8.0848E2	-20.025E0
8.0888E2	-22.30E0
8.0928E2	-27.761E0
8.0967E2	-24.121E0
8.1007E2	-27.989E0
8.1047E2	-3.4133E0
8.1086E2	-25.941E0
8.1126E2	-7.2817E0
8.1166E2	-20.025E0
8.1205E2	-2.048E0
8.1245E2	3.4133E0
8.1284E2	-6.599E0
8.1324E2	-21.617E0
8.1364E2	-14.791E0
8.1403E2	-11.605E0
8.1443E2	9.1021E0
8.1483E2	1.3653E0
8.1522E2	-31.402E0
8.1562E2	-40.277E0
8.1601E2	2.5031E0
8.1641E2	22.755E-2
8.1681E2	-23.21E0
8.172E2	-15.246E0
8.176E2	-30.947E0
8.1799E2	-41.87E0
8.1839E2	-2.2755E0
8.1878E2	-3.6408E0
8.1918E2	-20.48E0
8.1957E2	2.5031E0
8.1997E2	-6.3715E0
8.2037E2	-45.51E-2
8.2076E2	-17.749E0
8.2116E2	-21.617E0
8.2155E2	-1.5929E0
8.2195E2	-27.079E0
8.2234E2	-26.851E0
8.2274E2	-24.803E0
8.2313E2	-19.342E0
8.2353E2	-28.444E0
8.2392E2	-10.24E0
8.2432E2	-12.06E0
8.2471E2	-4.3235E0
8.2511E2	-13.198E0
8.255E2	-19.114E0
8.2589E2	-21.845E0
8.2629E2	-32.768E0
8.2668E2	-3.4133E0
8.2708E2	-17.294E0
8.2747E2	-18.887E0
8.2787E2	1.8204E0
8.2826E2	3.8684E0
8.2866E2	-18.887E0
8.2905E2	-7.0541E0
8.2944E2	-7.5092E0
8.2984E2	-20.707E0
8.3023E2	-15.701E0
8.3063E2	-40.732E0
8.3102E2	-28.444E0
8.3141E2	-22.528E0
8.3181E2	-14.563E0
8.322E2	-24.121E0
8.3259E2	10.24E0
8.3299E2	-13.653E0
8.3338E2	-18.204E0
8.3378E2	-12.288E0
8.3417E2	-16.156E0
8.3456E2	-9.3296E0
8.3496E2	-20.935E0
8.3535E2	-5.4613E0
8.3574E2	-5.6888E0
8.3613E2	-3.1857E0
8.3653E2	-5.4613E0
8.3692E2	-11.15E0
8.3731E2	-22.755E-2
8.3771E2	-2.048E0
8.381E2	-9.3296E0
8.3849E2	-20.252E0
8.3889E2	-9.7847E0
8.3928E2	-2.048E0
8.3967E2	-14.336E0
8.4006E2	22.755E-2
8.4046E2	-16.611E0
8.4085E2	-11.833E0
8.4124E2	-9.3296E0
8.4163E2	-35.043E0
8.4203E2	-19.114E0
8.4242E2	-16.156E0
8.4281E2	-36.863E0
8.432E2	-33.678E0
8.4359E2	-2.9582E0
8.4399E2	-23.665E0
8.4438E2	-11.833E0
8.4477E2	-24.803E0
8.4516E2	-7.7368E0
8.4555E2	-16.384E0
8.4595E2	-17.294E0
8.4634E2	-15.474E0
8.4673E2	-22.755E0
8.4712E2	-20.025E0
8.4751E2	-28.216E0
8.479E2	6.1439E0
8.4829E2	-7.9643E0
8.4869E2	-15.474E0
8.4908E2	-11.378E0
8.4947E2	-18.887E0
8.4986E2	-17.066E0
8.5025E2	-2.9582E0
8.5064E2	-8.647E0
8.5103E2	-15.018E0
8.5142E2	-22.073E0
8.5181E2	-3.6408E0
8.5221E2	-39.822E0
8.526E2	-25.031E0
8.5299E2	-3.8684E0
8.5338E2	-29.809E0
8.5377E2	-21.39E0
8.5416E2	-5.9164E0
8.5455E2	-36.636E0
8.5494E2	-19.797E0
8.5533E2	-14.108E0
8.5572E2	14.108E0
8.5611E2	13.198E0
8.565E2	-6.1439E0
8.5689E2	-13.426E0
8.5728E2	-17.749E0
8.5767E2	16.839E0
8.5806E2	10.922E0
8.5845E2	-7.2817E0
8.5884E2	-24.803E0
8.5923E2	-25.258E0
8.5962E2	-13.426E0
8.6001E2	-32.767E0
8.604E2	-17.294E0
8.6079E2	-14.791E0
8.6118E2	-18.887E0
8.6157E2	-36.408E0
8.6196E2	-2.2755E0
8.6235E2	-10.695E0
8.6274E2	-7.2817E0
8.6313E2	-26.396E0
8.6352E2	-6.3715E0
8.639E2	-25.486E0
8.6429E2	-16.156E0
8.6468E2	-21.162E0
8.6507E2	-17.522E0
8.6546E2	-17.522E0
8.6585E2	13.653E0
8.6624E2	-26.396E0
8.6663E2	-8.647E0
8.6702E2	-16.384E0
8.674E2	-38.001E0
8.6779E2	-13.426E0
8.6818E2	-20.252E0
8.6857E2	-17.294E0
8.6896E2	-31.175E0
8.6935E2	-15.474E0
8.6973E2	-43.235E0
8.7012E2	-24.348E0
8.7051E2	-8.1919E0
8.709E2	-12.97E0
8.7129E2	-25.486E0
8.7167E2	-7.0541E0
8.7206E2	-20.025E0
8.7245E2	-16.384E0
8.7284E2	-18.659E0
8.7323E2	-6.599E0
8.7361E2	-28.216E0
8.740E2	-18.887E0
8.7439E2	10.467E0
8.7478E2	-25.031E0
8.7516E2	-9.5572E0
8.7555E2	-27.534E0
8.7594E2	-9.5572E0
8.7633E2	-23.438E0
8.7671E2	-5.9164E0
8.771E2	-18.204E0
8.7749E2	-68.266E-2
8.7787E2	-23.21E0
8.7826E2	-17.749E0
8.7865E2	-6.3715E0
8.7904E2	-5.2337E0
8.7942E2	-44.373E0
8.7981E2	-5.2337E0
8.802E2	-23.438E0
8.8058E2	-21.39E0
8.8097E2	-9.7847E0
8.8136E2	-21.39E0
8.8174E2	-34.815E0
8.8213E2	6.8266E0
8.8252E2	-13.426E0
8.829E2	-68.266E-2
8.8329E2	-6.1439E0
8.8367E2	-18.432E0
8.8406E2	-18.659E0
8.8445E2	-34.815E0
8.8483E2	-4.551E0
8.8522E2	-13.881E0
8.856E2	-17.977E0
8.8599E2	-9.1021E0
8.8638E2	-17.977E0
8.8676E2	-13.426E0
8.8715E2	-22.755E0
8.8753E2	-16.384E0
8.8792E2	-16.839E0
8.883E2	-25.258E0
8.8869E2	-4.0959E0
8.8907E2	-24.803E0
8.8946E2	-7.0541E0
8.8984E2	-7.5092E0
8.9023E2	-16.611E0
8.9062E2	-8.4194E0
8.910E2	-15.018E0
8.9139E2	-17.066E0
8.9177E2	-18.659E0
8.9216E2	-27.079E0
8.9254E2	-30.037E0
8.9292E2	-4.7786E0
8.9331E2	-34.588E0
8.9369E2	-23.665E0
8.9408E2	-40.959E0
8.9446E2	-44.60E0
8.9485E2	-31.175E0
8.9523E2	-27.079E0
8.9562E2	-23.21E0
8.960E2	-39.367E0
8.9639E2	-10.012E0
8.9677E2	-26.396E0
8.9715E2	-20.48E0
8.9754E2	-9.3296E0
8.9792E2	-26.168E0
8.9831E2	-4.551E0
8.9869E2	-10.012E0
8.9907E2	-16.384E0
8.9946E2	-21.162E0
8.9984E2	-27.306E0
9.0022E2	-20.025E0
9.0061E2	-27.306E0
9.0099E2	-23.893E0
9.0138E2	-30.72E0
9.0176E2	-12.743E0
9.0214E2	-11.15E0
9.0253E2	-16.611E0
9.0291E2	-23.893E0
9.0329E2	-21.162E0
9.0368E2	-10.467E0
9.0406E2	-22.073E0
9.0444E2	-24.121E0
9.0482E2	-5.2337E0
9.0521E2	-15.701E0
9.0559E2	-9.1021E0
9.0597E2	-32.312E0
9.0636E2	-24.348E0
9.0674E2	-29.127E0
9.0712E2	-33.678E0
9.075E2	-11.605E0
9.0789E2	-14.336E0
9.0827E2	-11.833E0
9.0865E2	4.0959E0
9.0903E2	2.048E0
9.0941E2	-4.3235E0
9.098E2	-18.432E0
9.1018E2	-32.085E0
9.1056E2	-68.266E-2
9.1094E2	-24.803E0
9.1133E2	-25.713E0
9.1171E2	-13.198E0
9.1209E2	-14.108E0
9.1247E2	-8.647E0
9.1285E2	-17.066E0
9.1323E2	1.3653E0
9.1362E2	-22.30E0
9.140E2	-6.599E0
9.1438E2	-29.127E0
9.1476E2	-9.5572E0
9.1514E2	-35.271E0
9.1552E2	-23.893E0
9.159E2	-35.043E0
9.1629E2	-34.815E0
9.1667E2	-21.845E0
9.1705E2	-30.72E0
9.1743E2	-21.617E0
9.1781E2	-21.617E0
9.1819E2	-29.127E0
9.1857E2	-14.791E0
9.1895E2	-35.498E0
9.1933E2	-2.7306E0
9.1971E2	-7.0541E0
9.2009E2	-3.4133E0
9.2047E2	21.39E0
9.2085E2	-28.216E0
9.2123E2	-33.45E0
9.2162E2	-30.492E0
9.220E2	-41.414E0
9.2238E2	-16.611E0
9.2276E2	-16.839E0
9.2314E2	-23.665E0
9.2352E2	-20.935E0
9.239E2	-13.426E0
9.2428E2	-36.636E0
9.2466E2	-10.467E0
9.2504E2	-14.791E0
9.2542E2	-23.893E0
9.2579E2	-14.336E0
9.2617E2	-2.7306E0
9.2655E2	-27.761E0
9.2693E2	-22.983E0
9.2731E2	-4.3235E0
9.2769E2	-20.48E0
9.2807E2	-28.899E0
9.2845E2	-35.043E0
9.2883E2	-30.492E0
9.2921E2	-33.45E0
9.2959E2	-30.72E0
9.2997E2	-32.312E0
9.3035E2	-22.073E0
9.3072E2	-25.486E0
9.311E2	-5.4613E0
9.3148E2	-23.438E0
9.3186E2	-16.384E0
9.3224E2	-15.018E0
9.3262E2	-18.204E0
9.330E2	-31.63E0
9.3338E2	-28.444E0
9.3375E2	-37.774E0
9.3413E2	-16.839E0
9.3451E2	-2.7306E0
9.3489E2	-44.145E0
9.3527E2	-20.48E0
9.3564E2	-43.007E0
9.3602E2	-28.444E0
9.364E2	-29.127E0
9.3678E2	-17.977E0
9.3716E2	-16.839E0
9.3753E2	-22.755E0
9.3791E2	-17.749E0
9.3829E2	-30.947E0
9.3867E2	-31.175E0
9.3904E2	-39.367E0
9.3942E2	-29.354E0
9.398E2	-24.576E0
9.4018E2	-49.379E0
9.4055E2	-39.139E0
9.4093E2	-16.384E0
9.4131E2	-11.15E0
9.4169E2	-13.653E0
9.4206E2	-5.6888E0
9.4244E2	-11.15E0
9.4282E2	-7.9643E0
9.4319E2	1.5929E0
9.4357E2	-25.258E0
9.4395E2	-14.563E0
9.4432E2	12.743E0
9.447E2	-9.5572E0
9.4508E2	-30.72E0
9.4545E2	-19.569E0
9.4583E2	-14.336E0
9.4621E2	-5.9164E0
9.4658E2	-18.887E0
9.4696E2	-37.546E0
9.4733E2	-14.108E0
9.4771E2	-17.977E0
9.4809E2	-23.21E0
9.4846E2	-30.037E0
9.4884E2	-23.893E0
9.4921E2	-31.175E0
9.4959E2	-15.474E0
9.4997E2	-4.7786E0
9.5034E2	-29.809E0
9.5072E2	-19.342E0
9.5109E2	-29.809E0
9.5147E2	-16.384E0
9.5184E2	-30.947E0
9.5222E2	-7.9643E0
9.5259E2	-40.732E0
9.5297E2	-22.755E0
9.5335E2	-14.791E0
9.5372E2	-26.168E0
9.541E2	-17.294E0
9.5447E2	1.1378E0
9.5485E2	-21.845E0
9.5522E2	-25.713E0
9.556E2	-2.048E0
9.5597E2	-29.582E0
9.5634E2	-21.39E0
9.5672E2	-41.642E0
9.5709E2	-18.887E0
9.5747E2	-11.605E0
9.5784E2	-21.39E0
9.5822E2	-22.983E0
9.5859E2	-29.127E0
9.5897E2	-29.582E0
9.5934E2	-15.246E0
9.5971E2	-19.342E0
9.6009E2	-8.1919E0
9.6046E2	-15.701E0
9.6084E2	-25.486E0
9.6121E2	-38.001E0
9.6158E2	-22.528E0
9.6196E2	-15.246E0
9.6233E2	-16.611E0
9.6271E2	-11.378E0
9.6308E2	-18.659E0
9.6345E2	-29.127E0
9.6383E2	-13.198E0
9.642E2	-16.156E0
9.6457E2	-43.918E0
9.6495E2	-33.45E0
9.6532E2	-12.06E0
9.6569E2	-4.0959E0
9.6607E2	-11.378E0
9.6644E2	-29.127E0
9.6681E2	-12.288E0
9.6718E2	-15.701E0
9.6756E2	-16.839E0
9.6793E2	-36.181E0
9.683E2	-18.887E0
9.6867E2	-12.515E0
9.6905E2	-28.444E0
9.6942E2	-11.15E0
9.6979E2	-24.576E0
9.7016E2	-24.348E0
9.7054E2	-20.48E0
9.7091E2	-24.121E0
9.7128E2	-29.127E0
9.7165E2	-13.881E0
9.7203E2	-26.624E0
9.724E2	-23.21E0
9.7277E2	-28.216E0
9.7314E2	-23.21E0
9.7351E2	-22.983E0
9.7389E2	2.048E0
9.7426E2	-23.21E0
9.7463E2	-18.432E0
9.750E2	-25.258E0
9.7537E2	-27.079E0
9.7574E2	-24.121E0
9.7611E2	1.5929E0
9.7649E2	-20.252E0
9.7686E2	-24.348E0
9.7723E2	-17.977E0
9.776E2	4.3235E0
9.7797E2	-3.1857E0
9.7834E2	5.9482E2
9.7871E2	11.378E0
9.7908E2	-18.887E0
9.7945E2	-5.4613E0
9.7982E2	-17.066E0
9.802E2	-12.515E0
9.8057E2	-18.204E0
9.8094E2	-1.1378E0
9.8131E2	-26.168E0
9.8168E2	-36.181E0
9.8205E2	-42.78E0
9.8242E2	-11.15E0
9.8279E2	-20.935E0
9.8316E2	-17.977E0
9.8353E2	-41.187E0
9.839E2	-26.851E0
9.8427E2	-29.354E0
9.8464E2	-46.648E0
9.8501E2	-59.164E0
9.8538E2	-37.774E0
9.8575E2	-35.271E0
9.8612E2	-15.929E0
9.8649E2	-15.474E0
9.8686E2	-24.803E0
9.8723E2	-18.887E0
9.876E2	-25.258E0
9.8796E2	-25.941E0
9.8833E2	-39.822E0
9.887E2	-14.563E0
9.8907E2	-18.659E0
9.8944E2	-29.582E0
9.8981E2	-15.929E0
9.9018E2	-14.108E0
9.9055E2	-27.989E0
9.9092E2	-31.175E0
9.9129E2	-5.0061E0
9.9165E2	-27.989E0
9.9202E2	-38.229E0
9.9239E2	-28.899E0
9.9276E2	-22.073E0
9.9313E2	-34.133E0
9.935E2	-28.899E0
9.9387E2	-33.678E0
9.9423E2	-32.768E0
9.946E2	-27.989E0
9.9497E2	-17.749E0
9.9534E2	-36.181E0
9.9571E2	-34.815E0
9.9607E2	-21.39E0
9.9644E2	-12.515E0
9.9681E2	-27.079E0
9.9718E2	-31.857E0
9.9755E2	-25.713E0
9.9791E2	-15.018E0
9.9828E2	-29.582E0
9.9865E2	-8.647E0
9.9902E2	-35.271E0
9.9938E2	-33.905E0
9.9975E2	-29.354E0
10.001E2	-91.021E-2
10.005E2	-22.073E0
10.009E2	-14.108E0
10.012E2	-38.456E0
10.016E2	-7.7368E0
10.02E2	-17.522E0
10.023E2	-28.672E0
10.027E2	-17.066E0
10.031E2	-11.378E0
10.034E2	-27.534E0
10.038E2	-10.467E0
10.042E2	-18.432E0
10.045E2	-20.48E0
10.049E2	-16.156E0
10.053E2	-33.678E0
10.056E2	-25.486E0
10.06E2	-26.168E0
10.064E2	-31.402E0
10.067E2	-9.7847E0
10.071E2	-7.0541E0
10.074E2	-36.181E0
10.078E2	-34.588E0
10.082E2	-26.168E0
10.085E2	-13.881E0
10.089E2	-7.5092E0
10.093E2	-33.905E0
10.096E2	-17.294E0
10.10E2	-14.336E0
10.104E2	-19.797E0
10.107E2	-9.5572E0
10.111E2	-11.833E0
10.115E2	-16.839E0
10.118E2	-22.755E-2
10.122E2	-9.7847E0
10.126E2	-25.713E0
10.129E2	-3.4133E0
10.133E2	-26.168E0
10.137E2	-27.534E0
10.14E2	-30.037E0
10.144E2	-20.48E0
10.148E2	-21.162E0
10.151E2	-6.8266E0
10.155E2	-9.1021E0
10.158E2	-34.133E0
10.162E2	-23.665E0
10.166E2	-26.624E0
10.169E2	-25.941E0
10.173E2	-30.264E0
10.177E2	-36.636E0
10.18E2	-24.348E0
10.184E2	-21.162E0
10.188E2	-10.467E0
10.191E2	-27.306E0
10.195E2	-18.659E0
10.199E2	-1.5929E0
10.202E2	-20.48E0
10.206E2	-20.48E0
10.209E2	-33.223E0
10.213E2	-21.39E0
10.217E2	-36.636E0
10.22E2	-11.605E0
10.224E2	-4.3235E0
10.228E2	-40.504E0
10.231E2	-20.935E0
10.235E2	-19.342E0
10.238E2	-11.378E0
10.242E2	-17.294E0
10.246E2	-34.133E0
10.249E2	-42.097E0
10.253E2	-35.953E0
10.257E2	-33.223E0
10.26E2	-25.486E0
10.264E2	-32.768E0
10.267E2	-24.348E0
10.271E2	-13.653E0
10.275E2	-20.935E0
10.278E2	-25.713E0
10.282E2	-10.467E0
10.286E2	-7.5092E0
10.289E2	-32.085E0
10.293E2	-45.283E0
10.296E2	-25.258E0
10.30E2	-23.665E0
10.304E2	-25.258E0
10.307E2	-24.348E0
10.311E2	-8.4194E0
10.315E2	-28.216E0
10.318E2	-17.066E0
10.322E2	-6.599E0
10.325E2	-27.989E0
10.329E2	-36.863E0
10.333E2	-19.342E0
10.336E2	-16.384E0
10.34E2	-21.162E0
10.343E2	-20.707E0
10.347E2	-25.258E0
10.351E2	-15.246E0
10.354E2	-10.012E0
10.358E2	-36.408E0
10.362E2	-14.791E0
10.365E2	14.563E0
10.369E2	-9.7847E0
10.372E2	-24.121E0
10.376E2	-38.229E0
10.38E2	-8.647E0
