Data from JAZA26501_14-01-28-508.txt Node
Date: Sun Sep 29 14:01:28 ADT 2013
User: oceanview
Spectrometer:  JAZA2650
Trigger mode: 0
Integration Time (sec): 1.000000E-1
Scans to average: 10
Electric dark correction enabled: true
Nonlinearity correction enabled: false
Boxcar width: 0
XAxis mode: Wavelengths
Number of Pixels in Spectrum: 2048
>>>>>Begin Spectral Data<<<<<
1.897E2	-20.537E0
1.9015E2	-20.537E0
1.9061E2	-20.537E0
1.9106E2	-5.9732E0
1.9151E2	-4.1528E0
1.9197E2	7.4523E0
1.9242E2	9.5003E0
1.9288E2	4.4942E0
1.9333E2	19.513E0
1.9378E2	19.057E0
1.9424E2	-8.9314E0
1.9469E2	8.3625E0
1.9515E2	-11.434E0
1.956E2	14.051E0
1.9605E2	-10.069E0
1.9651E2	-1.8773E0
1.9696E2	-3.9253E0
1.9742E2	-15.53E0
1.9787E2	-12.80E0
1.9832E2	-31.459E0
1.9878E2	-29.866E0
1.9923E2	-31.004E0
1.9968E2	-28.046E0
2.0014E2	-18.716E0
2.0059E2	-17.806E0
2.0104E2	-8.2488E0
2.015E2	-9.159E0
2.0195E2	-37.148E0
2.0241E2	62.577E-2
2.0286E2	-23.95E0
2.0331E2	-30.549E0
2.0377E2	-17.806E0
2.0422E2	-14.848E0
2.0467E2	-16.896E0
2.0513E2	-20.537E0
2.0558E2	-24.405E0
2.0603E2	-31.687E0
2.0649E2	-17.123E0
2.0694E2	-19.626E0
2.0739E2	-33.507E0
2.0785E2	-15.986E0
2.083E2	-22.585E0
2.0875E2	-32.369E0
2.0921E2	-9.8416E0
2.0966E2	-41.699E0
2.1011E2	-33.962E0
2.1056E2	-32.824E0
2.1102E2	-20.764E0
2.1147E2	-12.117E0
2.1192E2	-23.495E0
2.1238E2	-23.495E0
2.1283E2	-38.968E0
2.1328E2	-33.962E0
2.1374E2	-33.507E0
2.1419E2	-25.315E0
2.1464E2	-42.154E0
2.1509E2	-25.088E0
2.1555E2	-32.824E0
2.160E2	-30.094E0
2.1645E2	-29.411E0
2.169E2	-34.19E0
2.1736E2	-24.633E0
2.1781E2	-1.8773E0
2.1826E2	-51.029E0
2.1872E2	-15.758E0
2.1917E2	-30.776E0
2.1962E2	-17.806E0
2.2007E2	-9.6141E0
2.2053E2	-43.747E0
2.2098E2	-36.465E0
2.2143E2	-54.442E0
2.2188E2	-33.735E0
2.2234E2	-23.95E0
2.2279E2	-56.262E0
2.2324E2	-25.77E0
2.2369E2	-49.891E0
2.2414E2	-43.519E0
2.246E2	-42.609E0
2.2505E2	-15.53E0
2.255E2	-36.465E0
2.2595E2	-18.261E0
2.2641E2	-13.482E0
2.2686E2	-10.979E0
2.2731E2	-27.363E0
2.2776E2	-23.267E0
2.2821E2	-25.77E0
2.2867E2	-5.9732E0
2.2912E2	-23.95E0
2.2957E2	-39.196E0
2.3002E2	-34.19E0
2.3047E2	-30.321E0
2.3093E2	-8.7039E0
2.3138E2	-15.53E0
2.3183E2	-19.854E0
2.3228E2	-39.196E0
2.3273E2	-38.513E0
2.3318E2	-20.309E0
2.3364E2	-36.238E0
2.3409E2	-26.908E0
2.3454E2	-20.537E0
2.3499E2	-41.699E0
2.3544E2	-35.10E0
2.3589E2	-18.489E0
2.3635E2	-1.1946E0
2.368E2	-14.848E0
2.3725E2	-40.789E0
2.377E2	-10.524E0
2.3815E2	-32.142E0
2.386E2	-8.9314E0
2.3905E2	-22.129E0
2.3951E2	-36.238E0
2.3996E2	-2.3324E0
2.4041E2	-40.334E0
2.4086E2	-20.081E0
2.4131E2	-20.537E0
2.4176E2	-14.848E0
2.4221E2	-25.77E0
2.4266E2	-16.668E0
2.4312E2	-13.938E0
2.4357E2	-15.53E0
2.4402E2	-43.747E0
2.4447E2	-46.25E0
2.4492E2	-25.77E0
2.4537E2	-31.459E0
2.4582E2	-51.256E0
2.4627E2	-24.405E0
2.4672E2	-16.896E0
2.4717E2	-36.693E0
2.4763E2	-44.43E0
2.4808E2	-7.5661E0
2.4853E2	-18.034E0
2.4898E2	-34.645E0
2.4943E2	-8.2488E0
2.4988E2	-33.279E0
2.5033E2	-12.117E0
2.5078E2	-32.597E0
2.5123E2	-36.693E0
2.5168E2	-27.818E0
2.5213E2	-37.375E0
2.5258E2	-34.645E0
2.5303E2	-25.315E0
2.5348E2	-28.728E0
2.5393E2	-28.444E-2
2.5438E2	-44.43E0
2.5484E2	-31.914E0
2.5529E2	-17.123E0
2.5574E2	-34.645E0
2.5619E2	-17.806E0
2.5664E2	-38.741E0
2.5709E2	-24.177E0
2.5754E2	-26.225E0
2.5799E2	-39.651E0
2.5844E2	39.822E-2
2.5889E2	-20.309E0
2.5934E2	-40.561E0
2.5979E2	-35.555E0
2.6024E2	-15.303E0
2.6069E2	-37.603E0
2.6114E2	-42.154E0
2.6159E2	-18.034E0
2.6204E2	-33.052E0
2.6249E2	-41.471E0
2.6294E2	-58.765E0
2.6339E2	-41.016E0
2.6384E2	-47.843E0
2.6429E2	-38.286E0
2.6474E2	-21.902E0
2.6519E2	-31.459E0
2.6564E2	-34.872E0
2.6609E2	-12.80E0
2.6654E2	-42.382E0
2.6699E2	-37.375E0
2.6744E2	-27.363E0
2.6789E2	-30.321E0
2.6833E2	-9.8416E0
2.6878E2	-18.261E0
2.6923E2	-28.444E-2
2.6968E2	-27.591E0
2.7013E2	-9.3865E0
2.7058E2	-14.393E0
2.7103E2	-18.716E0
2.7148E2	-5.7457E0
2.7193E2	-24.86E0
2.7238E2	-13.71E0
2.7283E2	-27.136E0
2.7328E2	-26.225E0
2.7373E2	-31.914E0
2.7418E2	-23.04E0
2.7463E2	-14.165E0
2.7507E2	-41.471E0
2.7552E2	-41.926E0
2.7597E2	-28.046E0
2.7642E2	-32.142E0
2.7687E2	-44.657E0
2.7732E2	-43.974E0
2.7777E2	-26.225E0
2.7822E2	-38.968E0
2.7867E2	-30.321E0
2.7912E2	-25.088E0
2.7956E2	-28.501E0
2.8001E2	-6.8835E0
2.8046E2	-25.543E0
2.8091E2	-31.459E0
2.8136E2	-16.668E0
2.8181E2	-17.578E0
2.8226E2	-31.459E0
2.8271E2	-37.148E0
2.8315E2	-24.86E0
2.836E2	-36.465E0
2.8405E2	-31.914E0
2.845E2	-23.95E0
2.8495E2	-31.232E0
2.854E2	-24.405E0
2.8585E2	-15.075E0
2.8629E2	-28.046E0
2.8674E2	-44.43E0
2.8719E2	-33.507E0
2.8764E2	-43.519E0
2.8809E2	-19.171E0
2.8854E2	-46.478E0
2.8898E2	-15.53E0
2.8943E2	-31.004E0
2.8988E2	-27.363E0
2.9033E2	4.2666E0
2.9078E2	-11.207E0
2.9122E2	-19.171E0
2.9167E2	-42.154E0
2.9212E2	-17.578E0
2.9257E2	-11.434E0
2.9302E2	-31.004E0
2.9346E2	-30.549E0
2.9391E2	-31.687E0
2.9436E2	-50.801E0
2.9481E2	-27.818E0
2.9526E2	-32.597E0
2.957E2	-9.6141E0
2.9615E2	-30.776E0
2.966E2	-18.944E0
2.9705E2	-23.95E0
2.9749E2	-33.052E0
2.9794E2	-23.267E0
2.9839E2	-26.225E0
2.9884E2	-18.034E0
2.9928E2	-42.837E0
2.9973E2	-27.591E0
3.0018E2	-23.95E0
3.0063E2	-26.225E0
3.0107E2	-21.674E0
3.0152E2	-38.513E0
3.0197E2	-20.992E0
3.0242E2	-25.998E0
3.0286E2	-16.668E0
3.0331E2	-37.831E0
3.0376E2	-40.334E0
3.0421E2	-14.848E0
3.0465E2	-17.806E0
3.051E2	-29.866E0
3.0555E2	-53.759E0
3.0599E2	-25.998E0
3.0644E2	-23.267E0
3.0689E2	-22.357E0
3.0734E2	-23.04E0
3.0778E2	-31.914E0
3.0823E2	-39.196E0
3.0868E2	-12.80E0
3.0912E2	-36.465E0
3.0957E2	-17.351E0
3.1002E2	-36.238E0
3.1046E2	-23.495E0
3.1091E2	-31.459E0
3.1136E2	-12.572E0
3.118E2	-3.2426E0
3.1225E2	-25.77E0
3.127E2	-37.148E0
3.1314E2	-4.8355E0
3.1359E2	-46.478E0
3.1404E2	-38.286E0
3.1448E2	-19.626E0
3.1493E2	-17.578E0
3.1538E2	-23.267E0
3.1582E2	21.561E0
3.1627E2	-30.776E0
3.1672E2	-18.716E0
3.1716E2	-31.004E0
3.1761E2	-18.489E0
3.1805E2	-29.639E0
3.185E2	-34.417E0
3.1895E2	-49.663E0
3.1939E2	-36.693E0
3.1984E2	-23.495E0
3.2029E2	-34.645E0
3.2073E2	-12.80E0
3.2118E2	-39.423E0
3.2162E2	-42.609E0
3.2207E2	-30.776E0
3.2252E2	-33.962E0
3.2296E2	-20.537E0
3.2341E2	-28.956E0
3.2385E2	-26.68E0
3.243E2	-30.321E0
3.2474E2	-30.776E0
3.2519E2	-20.992E0
3.2564E2	-24.177E0
3.2608E2	-38.286E0
3.2653E2	-29.411E0
3.2697E2	-16.668E0
3.2742E2	-45.567E0
3.2786E2	-27.136E0
3.2831E2	-27.136E0
3.2876E2	-32.824E0
3.292E2	-29.184E0
3.2965E2	-18.489E0
3.3009E2	-28.046E0
3.3054E2	-25.543E0
3.3098E2	-23.04E0
3.3143E2	-26.453E0
3.3187E2	-20.764E0
3.3232E2	-4.3804E0
3.3276E2	-20.537E0
3.3321E2	-25.315E0
3.3365E2	-13.255E0
3.341E2	-24.633E0
3.3454E2	-3.0151E0
3.3499E2	-36.465E0
3.3543E2	-27.136E0
3.3588E2	-40.106E0
3.3632E2	-36.465E0
3.3677E2	-16.668E0
3.3721E2	-28.273E0
3.3766E2	-44.657E0
3.381E2	-4.6079E0
3.3855E2	-21.447E0
3.3899E2	-40.106E0
3.3944E2	-24.86E0
3.3988E2	-46.478E0
3.4033E2	-21.902E0
3.4077E2	-28.501E0
3.4122E2	-28.444E-2
3.4166E2	-36.92E0
3.4211E2	-43.292E0
3.4255E2	-19.399E0
3.430E2	-17.123E0
3.4344E2	-31.459E0
3.4388E2	-37.831E0
3.4433E2	-17.578E0
3.4477E2	-49.663E0
3.4522E2	-39.196E0
3.4566E2	-18.034E0
3.4611E2	-33.507E0
3.4655E2	-28.501E0
3.470E2	-39.651E0
3.4744E2	-45.567E0
3.4788E2	-34.19E0
3.4833E2	-33.279E0
3.4877E2	-30.321E0
3.4922E2	-41.699E0
3.4966E2	-42.382E0
3.501E2	-7.111E0
3.5055E2	-28.273E0
3.5099E2	-17.123E0
3.5144E2	-5.7457E0
3.5188E2	-33.052E0
3.5232E2	-23.95E0
3.5277E2	-21.447E0
3.5321E2	-28.273E0
3.5365E2	-21.902E0
3.541E2	-41.471E0
3.5454E2	-23.04E0
3.5499E2	-36.238E0
3.5543E2	-21.219E0
3.5587E2	-28.273E0
3.5632E2	-25.088E0
3.5676E2	-23.04E0
3.572E2	-38.513E0
3.5765E2	-45.112E0
3.5809E2	-29.184E0
3.5853E2	-15.758E0
3.5898E2	-21.219E0
3.5942E2	-20.081E0
3.5986E2	-51.484E0
3.6031E2	-46.705E0
3.6075E2	-51.484E0
3.6119E2	-12.572E0
3.6164E2	-43.519E0
3.6208E2	-23.722E0
3.6252E2	-22.357E0
3.6297E2	-28.956E0
3.6341E2	-29.184E0
3.6385E2	-44.657E0
3.6429E2	-43.292E0
3.6474E2	-39.879E0
3.6518E2	-8.7039E0
3.6562E2	-23.722E0
3.6607E2	-32.142E0
3.6651E2	-32.597E0
3.6695E2	-36.465E0
3.6739E2	-19.854E0
3.6784E2	-39.651E0
3.6828E2	-35.327E0
3.6872E2	-31.004E0
3.6916E2	-23.95E0
3.6961E2	-23.04E0
3.7005E2	-35.327E0
3.7049E2	-25.315E0
3.7093E2	-9.159E0
3.7138E2	-16.213E0
3.7182E2	-8.4763E0
3.7226E2	-30.094E0
3.727E2	-32.142E0
3.7315E2	-19.399E0
3.7359E2	-28.728E0
3.7403E2	-27.136E0
3.7447E2	-23.495E0
3.7492E2	-20.992E0
3.7536E2	-16.213E0
3.758E2	-29.411E0
3.7624E2	-32.597E0
3.7668E2	-36.238E0
3.7713E2	-23.04E0
3.7757E2	-25.088E0
3.7801E2	-30.321E0
3.7845E2	-36.238E0
3.7889E2	-41.016E0
3.7934E2	-20.537E0
3.7978E2	-20.537E0
3.8022E2	-38.058E0
3.8066E2	-20.764E0
3.811E2	-20.537E0
3.8154E2	-15.53E0
3.8199E2	-33.279E0
3.8243E2	-24.405E0
3.8287E2	-35.327E0
3.8331E2	-21.902E0
3.8375E2	-40.334E0
3.8419E2	-37.148E0
3.8463E2	-41.244E0
3.8508E2	-15.075E0
3.8552E2	-49.663E0
3.8596E2	-42.609E0
3.864E2	-25.998E0
3.8684E2	-33.735E0
3.8728E2	-43.519E0
3.8772E2	-39.423E0
3.8816E2	-23.95E0
3.8861E2	-37.148E0
3.8905E2	-26.453E0
3.8949E2	-18.261E0
3.8993E2	-22.812E0
3.9037E2	-29.184E0
3.9081E2	-14.165E0
3.9125E2	-37.831E0
3.9169E2	-52.621E0
3.9213E2	-17.351E0
3.9257E2	-27.136E0
3.9301E2	-44.202E0
3.9346E2	-29.184E0
3.939E2	-17.578E0
3.9434E2	-5.5181E0
3.9478E2	-16.213E0
3.9522E2	-14.165E0
3.9566E2	-28.728E0
3.961E2	-23.495E0
3.9654E2	-38.741E0
3.9698E2	13.141E0
3.9742E2	-26.453E0
3.9786E2	-36.92E0
3.983E2	-33.052E0
3.9874E2	-46.705E0
3.9918E2	-28.273E0
3.9962E2	-17.351E0
4.0006E2	-25.543E0
4.005E2	-32.597E0
4.0094E2	-15.758E0
4.0138E2	-5.6888E-2
4.0182E2	-30.094E0
4.0226E2	-26.453E0
4.027E2	-42.837E0
4.0314E2	-46.25E0
4.0358E2	-26.68E0
4.0402E2	-21.447E0
4.0446E2	-35.327E0
4.049E2	-20.992E0
4.0534E2	-38.513E0
4.0578E2	-27.136E0
4.0622E2	-31.232E0
4.0666E2	-21.219E0
4.071E2	-22.129E0
4.0754E2	-30.321E0
4.0798E2	-23.495E0
4.0842E2	-40.561E0
4.0886E2	-31.914E0
4.093E2	-16.896E0
4.0974E2	-33.735E0
4.1018E2	-36.01E0
4.1062E2	-33.735E0
4.1106E2	-43.292E0
4.115E2	-11.89E0
4.1194E2	-23.95E0
4.1237E2	-6.6559E0
4.1281E2	-17.123E0
4.1325E2	-7.5661E0
4.1369E2	-25.77E0
4.1413E2	-32.597E0
4.1457E2	-34.417E0
4.1501E2	-11.89E0
4.1545E2	-21.219E0
4.1589E2	-27.136E0
4.1633E2	-12.80E0
4.1676E2	-21.674E0
4.172E2	-96.71E-2
4.1764E2	-10.752E0
4.1808E2	-18.261E0
4.1852E2	-25.77E0
4.1896E2	-20.537E0
4.194E2	-20.081E0
4.1984E2	-15.075E0
4.2027E2	5.1768E0
4.2071E2	-13.938E0
4.2115E2	6.9972E0
4.2159E2	17.465E0
4.2203E2	-8.9314E0
4.2247E2	-3.0151E0
4.2291E2	5.1768E0
4.2334E2	-96.71E-2
4.2378E2	5.6319E0
4.2422E2	-22.585E0
4.2466E2	-3.6977E0
4.251E2	-73.954E-2
4.2554E2	9.2727E0
4.2597E2	5.6319E0
4.2641E2	24.064E0
4.2685E2	-1.4222E0
4.2729E2	10.411E0
4.2773E2	9.9554E0
4.2816E2	28.615E0
4.286E2	31.345E0
4.2904E2	46.136E0
4.2948E2	31.80E0
4.2991E2	40.22E0
4.3035E2	41.358E0
4.3079E2	33.166E0
4.3123E2	30.663E0
4.3167E2	63.658E0
4.321E2	63.203E0
4.3254E2	71.394E0
4.3298E2	50.915E0
4.3342E2	67.526E0
4.3385E2	88.461E0
4.3429E2	74.58E0
4.3473E2	86.868E0
4.3517E2	93.695E0
4.356E2	80.041E0
4.3604E2	85.048E0
4.3648E2	1.1508E2
4.3692E2	1.1144E2
4.3735E2	1.1349E2
4.3779E2	1.0871E2
4.3823E2	1.3215E2
4.3866E2	1.3124E2
4.391E2	1.1531E2
4.3954E2	1.342E2
4.3997E2	1.6219E2
4.4041E2	1.6037E2
4.4085E2	1.317E2
4.4129E2	1.6355E2
4.4172E2	1.6128E2
4.4216E2	1.8836E2
4.426E2	1.8107E2
4.4303E2	1.788E2
4.4347E2	1.813E2
4.4391E2	1.8107E2
4.4434E2	1.8289E2
4.4478E2	1.9222E2
4.4522E2	1.9382E2
4.4565E2	1.9541E2
4.4609E2	1.9109E2
4.4653E2	1.9746E2
4.4696E2	2.1134E2
4.474E2	1.8972E2
4.4783E2	2.0178E2
4.4827E2	2.2021E2
4.4871E2	1.9905E2
4.4914E2	2.127E2
4.4958E2	1.9359E2
4.5002E2	2.0656E2
4.5045E2	1.9154E2
4.5089E2	2.2567E2
4.5132E2	2.4684E2
4.5176E2	2.325E2
4.522E2	2.1748E2
4.5263E2	2.0292E2
4.5307E2	1.9336E2
4.535E2	1.9609E2
4.5394E2	1.9222E2
4.5437E2	1.8267E2
4.5481E2	1.722E2
4.5525E2	1.6833E2
4.5568E2	1.6719E2
4.5612E2	1.7516E2
4.5655E2	1.6173E2
4.5699E2	1.8289E2
4.5742E2	1.6037E2
4.5786E2	1.6128E2
4.5829E2	1.8949E2
4.5873E2	1.6537E2
4.5917E2	1.5491E2
4.596E2	1.5627E2
4.6004E2	1.3625E2
4.6047E2	1.6196E2
4.6091E2	1.3966E2
4.6134E2	1.5195E2
4.6178E2	1.2965E2
4.6221E2	1.2259E2
4.6265E2	1.0962E2
4.6308E2	1.3033E2
4.6352E2	1.276E2
4.6395E2	1.2328E2
4.6439E2	1.144E2
4.6482E2	1.2828E2
4.6526E2	1.3534E2
4.6569E2	1.3602E2
4.6613E2	1.1235E2
4.6656E2	1.0849E2
4.670E2	1.2669E2
4.6743E2	98.473E0
4.6787E2	1.0985E2
4.683E2	1.1713E2
4.6873E2	1.1372E2
4.6917E2	1.0894E2
4.696E2	1.1508E2
4.7004E2	1.1645E2
4.7047E2	1.1918E2
4.7091E2	96.653E0
4.7134E2	1.0211E2
4.7177E2	1.0189E2
4.7221E2	1.0507E2
4.7264E2	98.018E0
4.7308E2	1.0416E2
4.7351E2	1.1964E2
4.7395E2	98.246E0
4.7438E2	88.688E0
4.7481E2	88.688E0
4.7525E2	1.0689E2
4.7568E2	1.012E2
4.7612E2	1.4967E2
4.7655E2	1.1349E2
4.7698E2	97.335E0
4.7742E2	1.0826E2
4.7785E2	1.2714E2
4.7828E2	1.0507E2
4.7872E2	1.0871E2
4.7915E2	1.0803E2
4.7959E2	1.2623E2
4.8002E2	1.094E2
4.8045E2	1.053E2
4.8089E2	1.1554E2
4.8132E2	1.3329E2
4.8175E2	1.2441E2
4.8219E2	1.144E2
4.8262E2	1.2646E2
4.8305E2	1.2874E2
4.8349E2	1.2897E2
4.8392E2	1.5331E2
4.8435E2	1.3716E2
4.8479E2	1.3283E2
4.8522E2	1.4376E2
4.8565E2	1.6082E2
4.8608E2	1.4717E2
4.8652E2	1.474E2
4.8695E2	1.1895E2
4.8738E2	1.4444E2
4.8782E2	1.4603E2
4.8825E2	1.4808E2
4.8868E2	1.5081E2
4.8911E2	1.4649E2
4.8955E2	1.5718E2
4.8998E2	1.4785E2
4.9041E2	1.7334E2
4.9084E2	1.9063E2
4.9128E2	1.7357E2
4.9171E2	1.9245E2
4.9214E2	1.6082E2
4.9257E2	1.8426E2
4.9301E2	1.8449E2
4.9344E2	1.9882E2
4.9387E2	1.8585E2
4.943E2	1.8062E2
4.9474E2	2.0042E2
4.9517E2	1.7721E2
4.956E2	2.0292E2
4.9603E2	1.8995E2
4.9647E2	2.0906E2
4.969E2	2.127E2
4.9733E2	2.0133E2
4.9776E2	1.7584E2
4.9819E2	2.0588E2
4.9862E2	2.1248E2
4.9906E2	2.0428E2
4.9949E2	2.3205E2
4.9992E2	2.2135E2
5.0035E2	2.3637E2
5.0078E2	2.3478E2
5.0122E2	2.3045E2
5.0165E2	2.2454E2
5.0208E2	2.0656E2
5.0251E2	2.1657E2
5.0294E2	2.1452E2
5.0337E2	2.1248E2
5.038E2	2.3136E2
5.0424E2	2.2181E2
5.0467E2	2.4524E2
5.051E2	2.1066E2
5.0553E2	2.5002E2
5.0596E2	2.2613E2
5.0639E2	2.3887E2
5.0682E2	2.5139E2
5.0725E2	2.5708E2
5.0769E2	2.2841E2
5.0812E2	2.2567E2
5.0855E2	2.2841E2
5.0898E2	2.2932E2
5.0941E2	2.3819E2
5.0984E2	2.5048E2
5.1027E2	2.3341E2
5.107E2	2.4775E2
5.1113E2	2.2863E2
5.1156E2	2.4297E2
5.1199E2	2.3614E2
5.1242E2	2.5753E2
5.1285E2	2.4479E2
5.1329E2	2.6891E2
5.1372E2	2.498E2
5.1415E2	2.573E2
5.1458E2	2.6186E2
5.1501E2	2.4183E2
5.1544E2	2.3956E2
5.1587E2	2.457E2
5.163E2	2.5412E2
5.1673E2	2.5389E2
5.1716E2	2.589E2
5.1759E2	2.4206E2
5.1802E2	2.5753E2
5.1845E2	2.6732E2
5.1888E2	2.4183E2
5.1931E2	2.3865E2
5.1974E2	2.3318E2
5.2017E2	2.5799E2
5.206E2	2.3409E2
5.2103E2	2.3569E2
5.2146E2	2.5457E2
5.2189E2	2.7027E2
5.2232E2	2.6572E2
5.2275E2	2.8051E2
5.2318E2	2.5002E2
5.2361E2	2.6231E2
5.2404E2	2.4502E2
5.2447E2	2.5366E2
5.2489E2	2.4661E2
5.2532E2	2.5002E2
5.2575E2	2.5617E2
5.2618E2	2.589E2
5.2661E2	2.8279E2
5.2704E2	2.4684E2
5.2747E2	2.5639E2
5.279E2	2.5981E2
5.2833E2	2.7869E2
5.2876E2	2.5071E2
5.2919E2	2.4911E2
5.2962E2	2.5662E2
5.3004E2	2.746E2
5.3047E2	2.8074E2
5.309E2	2.4001E2
5.3133E2	2.6299E2
5.3176E2	2.6936E2
5.3219E2	2.8484E2
5.3262E2	2.6254E2
5.3305E2	2.7346E2
5.3348E2	2.837E2
5.339E2	2.746E2
5.3433E2	2.8393E2
5.3476E2	2.3978E2
5.3519E2	2.8416E2
5.3562E2	2.8302E2
5.3605E2	2.9075E2
5.3647E2	2.9121E2
5.369E2	2.7528E2
5.3733E2	2.7619E2
5.3776E2	2.8211E2
5.3819E2	2.796E2
5.3862E2	2.6277E2
5.3904E2	2.7983E2
5.3947E2	2.589E2
5.399E2	3.0623E2
5.4033E2	2.6299E2
5.4076E2	2.8529E2
5.4118E2	2.7687E2
5.4161E2	3.0418E2
5.4204E2	2.7073E2
5.4247E2	3.019E2
5.4289E2	2.9758E2
5.4332E2	2.9963E2
5.4375E2	2.7733E2
5.4418E2	2.8006E2
5.4461E2	2.862E2
5.4503E2	2.9963E2
5.4546E2	2.8848E2
5.4589E2	3.0668E2
5.4632E2	2.7847E2
5.4674E2	3.217E2
5.4717E2	2.9531E2
5.476E2	3.1783E2
5.4802E2	2.9053E2
5.4845E2	2.944E2
5.4888E2	2.994E2
5.4931E2	2.9531E2
5.4973E2	3.0623E2
5.5016E2	3.0532E2
5.5059E2	3.126E2
5.5101E2	2.9166E2
5.5144E2	2.9713E2
5.5187E2	3.1465E2
5.5229E2	2.928E2
5.5272E2	3.1965E2
5.5315E2	2.9895E2
5.5357E2	3.1101E2
5.540E2	3.1806E2
5.5443E2	3.2512E2
5.5485E2	3.2398E2
5.5528E2	3.1305E2
5.5571E2	3.1874E2
5.5613E2	2.994E2
5.5656E2	2.9667E2
5.5699E2	2.8575E2
5.5741E2	3.0532E2
5.5784E2	3.060E2
5.5827E2	3.0941E2
5.5869E2	3.0919E2
5.5912E2	3.0486E2
5.5954E2	2.8256E2
5.5997E2	3.0759E2
5.604E2	2.8484E2
5.6082E2	3.035E2
5.6125E2	3.1305E2
5.6167E2	3.0304E2
5.621E2	3.1442E2
5.6253E2	2.9781E2
5.6295E2	2.8211E2
5.6338E2	2.9917E2
5.638E2	3.0919E2
5.6423E2	2.7574E2
5.6465E2	2.994E2
5.6508E2	2.8825E2
5.6551E2	2.6527E2
5.6593E2	3.1442E2
5.6636E2	3.0259E2
5.6678E2	2.8507E2
5.6721E2	2.9644E2
5.6763E2	2.9371E2
5.6806E2	2.8438E2
5.6848E2	2.6595E2
5.6891E2	2.8211E2
5.6933E2	2.6459E2
5.6976E2	2.9326E2
5.7018E2	3.0668E2
5.7061E2	2.9326E2
5.7103E2	3.0919E2
5.7146E2	3.0486E2
5.7188E2	2.8507E2
5.7231E2	3.0577E2
5.7273E2	3.0896E2
5.7316E2	2.9144E2
5.7358E2	2.928E2
5.7401E2	2.7915E2
5.7443E2	2.8825E2
5.7486E2	3.0532E2
5.7528E2	2.878E2
5.7571E2	3.0418E2
5.7613E2	2.9963E2
5.7655E2	3.060E2
5.7698E2	3.0668E2
5.774E2	3.0919E2
5.7783E2	2.969E2
5.7825E2	3.0941E2
5.7868E2	2.9917E2
5.791E2	3.1556E2
5.7952E2	3.151E2
5.7995E2	2.9258E2
5.8037E2	3.2489E2
5.808E2	2.9303E2
5.8122E2	2.9895E2
5.8164E2	3.1328E2
5.8207E2	3.1032E2
5.8249E2	3.2694E2
5.8291E2	2.8438E2
5.8334E2	2.9508E2
5.8376E2	2.969E2
5.8419E2	3.0259E2
5.8461E2	2.9895E2
5.8503E2	2.9804E2
5.8546E2	2.9758E2
5.8588E2	2.928E2
5.863E2	3.0304E2
5.8673E2	3.0509E2
5.8715E2	2.903E2
5.8757E2	3.0509E2
5.880E2	3.167E2
5.8842E2	3.1874E2
5.8884E2	3.0964E2
5.8927E2	3.0054E2
5.8969E2	2.796E2
5.9011E2	3.2216E2
5.9054E2	3.1351E2
5.9096E2	3.1829E2
5.9138E2	3.2648E2
5.918E2	3.2011E2
5.9223E2	3.1897E2
5.9265E2	3.2512E2
5.9307E2	3.4241E2
5.9349E2	3.2625E2
5.9392E2	3.192E2
5.9434E2	3.6061E2
5.9476E2	3.3809E2
5.9519E2	3.7085E2
5.9561E2	3.4173E2
5.9603E2	3.4468E2
5.9645E2	3.5174E2
5.9687E2	3.7791E2
5.973E2	3.9497E2
5.9772E2	4.0021E2
5.9814E2	3.8428E2
5.9856E2	3.927E2
5.9899E2	3.9202E2
5.9941E2	4.1909E2
5.9983E2	4.2273E2
6.0025E2	4.0931E2
6.0067E2	4.3457E2
6.011E2	4.4253E2
6.0152E2	4.5892E2
6.0194E2	4.4572E2
6.0236E2	4.7598E2
6.0278E2	4.7029E2
6.032E2	4.6278E2
6.0363E2	5.0215E2
6.0405E2	5.1853E2
6.0447E2	5.0556E2
6.0489E2	5.2877E2
6.0531E2	5.5221E2
6.0573E2	5.5403E2
6.0615E2	5.6109E2
6.0658E2	5.6723E2
6.070E2	5.8339E2
6.0742E2	6.3163E2
6.0784E2	6.0546E2
6.0826E2	6.2799E2
6.0868E2	6.4141E2
6.091E2	6.6417E2
6.0952E2	6.4983E2
6.0995E2	6.8078E2
6.1037E2	7.049E2
6.1079E2	7.2834E2
6.1121E2	7.5291E2
6.1163E2	7.6361E2
6.1205E2	7.9933E2
6.1247E2	8.1048E2
6.1289E2	8.4712E2
6.1331E2	8.5235E2
6.1373E2	9.0628E2
6.1415E2	8.9582E2
6.1457E2	9.4701E2
6.1499E2	9.5885E2
6.1541E2	9.8684E2
6.1583E2	10.162E2
6.1625E2	10.644E2
6.1667E2	10.89E2
6.1709E2	11.275E2
6.1751E2	11.484E2
6.1794E2	11.982E2
6.1836E2	12.178E2
6.1878E2	12.71E2
6.192E2	13.327E2
6.1962E2	13.607E2
6.2003E2	14.299E2
6.2045E2	14.351E2
6.2087E2	14.811E2
6.2129E2	15.35E2
6.2171E2	15.826E2
6.2213E2	16.347E2
6.2255E2	17.419E2
6.2297E2	17.439E2
6.2339E2	18.072E2
6.2381E2	19.05E2
6.2423E2	19.346E2
6.2465E2	20.29E2
6.2507E2	20.952E2
6.2549E2	21.726E2
6.2591E2	22.354E2
6.2633E2	23.369E2
6.2675E2	24.22E2
6.2717E2	24.919E2
6.2759E2	25.795E2
6.280E2	27.003E2
6.2842E2	27.863E2
6.2884E2	28.835E2
6.2926E2	30.346E2
6.2968E2	30.833E2
6.301E2	32.403E2
6.3052E2	33.593E2
6.3094E2	34.942E2
6.3135E2	36.462E2
6.3177E2	37.443E2
6.3219E2	39.489E2
6.3261E2	40.993E2
6.3303E2	42.716E2
6.3345E2	44.946E2
6.3387E2	46.634E2
6.3428E2	48.734E2
6.347E2	50.43E2
6.3512E2	52.844E2
6.3554E2	54.56E2
6.3596E2	57.529E2
6.3638E2	60.116E2
6.3679E2	63.036E2
6.3721E2	64.945E2
6.3763E2	68.001E2
6.3805E2	70.288E2
6.3847E2	73.171E2
6.3888E2	76.341E2
6.393E2	79.549E2
6.3972E2	82.246E2
6.4014E2	85.75E2
6.4055E2	89.623E2
6.4097E2	92.276E2
6.4139E2	95.817E2
6.4181E2	99.276E2
6.4222E2	1.0288E4
6.4264E2	1.0576E4
6.4306E2	1.0944E4
6.4348E2	1.1269E4
6.4389E2	1.1497E4
6.4431E2	1.1783E4
6.4473E2	1.1967E4
6.4515E2	1.2309E4
6.4556E2	1.2348E4
6.4598E2	1.2504E4
6.464E2	1.2566E4
6.4681E2	1.2588E4
6.4723E2	1.2617E4
6.4765E2	1.2479E4
6.4806E2	1.2352E4
6.4848E2	1.2234E4
6.489E2	1.1934E4
6.4931E2	1.1724E4
6.4973E2	1.1479E4
6.5015E2	1.1071E4
6.5056E2	1.0741E4
6.5098E2	1.0398E4
6.514E2	99.476E2
6.5181E2	94.379E2
6.5223E2	90.738E2
6.5265E2	86.048E2
6.5306E2	80.96E2
6.5348E2	75.927E2
6.5389E2	71.376E2
6.5431E2	66.699E2
6.5473E2	61.95E2
6.5514E2	57.413E2
6.5556E2	52.361E2
6.5597E2	47.833E2
6.5639E2	43.942E2
6.5681E2	39.846E2
6.5722E2	36.59E2
6.5764E2	33.422E2
6.5805E2	30.152E2
6.5847E2	27.613E2
6.5889E2	24.955E2
6.593E2	22.821E2
6.5972E2	20.677E2
6.6013E2	18.957E2
6.6055E2	17.334E2
6.6096E2	16.017E2
6.6138E2	14.629E2
6.6179E2	13.368E2
6.6221E2	11.907E2
6.6262E2	11.225E2
6.6304E2	9.8934E2
6.6345E2	9.3359E2
6.6387E2	8.6942E2
6.6428E2	7.8909E2
6.647E2	7.2652E2
6.6511E2	6.5666E2
6.6553E2	5.9613E2
6.6594E2	5.5039E2
6.6636E2	4.9805E2
6.6677E2	4.778E2
6.6719E2	4.4071E2
6.676E2	4.1614E2
6.6802E2	3.7927E2
6.6843E2	3.4446E2
6.6885E2	3.2398E2
6.6926E2	3.0304E2
6.6967E2	2.6618E2
6.7009E2	2.6345E2
6.705E2	2.4593E2
6.7092E2	2.0383E2
6.7133E2	1.9541E2
6.7175E2	1.7698E2
6.7216E2	1.7925E2
6.7257E2	1.4967E2
6.7299E2	1.4444E2
6.734E2	1.1258E2
6.7382E2	1.2555E2
6.7423E2	1.1759E2
6.7464E2	1.0416E2
6.7506E2	98.701E0
6.7547E2	83.682E0
6.7588E2	69.802E0
6.763E2	59.789E0
6.7671E2	64.795E0
6.7713E2	58.652E0
6.7754E2	56.831E0
6.7795E2	38.172E0
6.7837E2	46.364E0
6.7878E2	57.514E0
6.7919E2	68.209E0
6.7961E2	56.604E0
6.8002E2	48.867E0
6.8043E2	57.514E0
6.8085E2	76.173E0
6.8126E2	36.124E0
6.8167E2	27.477E0
6.8208E2	33.621E0
6.825E2	29.98E0
6.8291E2	19.285E0
6.8332E2	-16.213E0
6.8374E2	22.698E0
6.8415E2	25.429E0
6.8456E2	7.9074E0
6.8497E2	2.2186E0
6.8539E2	26.567E0
6.858E2	21.333E0
6.8621E2	21.105E0
6.8662E2	13.141E0
6.8704E2	12.231E0
6.8745E2	14.962E0
6.8786E2	21.561E0
6.8827E2	25.201E0
6.8869E2	12.686E0
6.891E2	2.9013E0
6.8951E2	14.962E0
6.8992E2	7.6799E0
6.9033E2	-11.434E0
6.9075E2	12.458E0
6.9116E2	-6.6559E0
6.9157E2	-13.938E0
6.9198E2	-20.309E0
6.9239E2	-1.8773E0
6.928E2	17.01E0
6.9322E2	-35.327E0
6.9363E2	-6.6559E0
6.9404E2	-17.578E0
6.9445E2	12.231E0
6.9486E2	2.9013E0
6.9527E2	-7.111E0
6.9568E2	-14.165E0
6.961E2	-22.129E0
6.9651E2	-18.716E0
6.9692E2	-28.501E0
6.9733E2	-20.537E0
6.9774E2	-22.129E0
6.9815E2	-1.6498E0
6.9856E2	-21.674E0
6.9897E2	-16.896E0
6.9939E2	3.8115E0
6.998E2	-17.806E0
7.0021E2	-11.207E0
7.0062E2	4.2666E0
7.0103E2	-20.537E0
7.0144E2	-20.309E0
7.0185E2	-16.441E0
7.0226E2	2.2186E0
7.0267E2	-25.77E0
7.0308E2	8.135E0
7.0349E2	7.4523E0
7.039E2	-24.405E0
7.0431E2	-24.86E0
7.0472E2	-6.6559E0
7.0513E2	-32.597E0
7.0554E2	3.1288E0
7.0595E2	-9.3865E0
7.0636E2	-18.261E0
7.0677E2	-30.776E0
7.0718E2	-21.902E0
7.0759E2	-15.758E0
7.080E2	6.3146E0
7.0841E2	-28.728E0
7.0882E2	-3.2426E0
7.0923E2	85.332E-2
7.0964E2	4.9493E0
7.1005E2	-6.8835E0
7.1046E2	-6.6559E0
7.1087E2	-22.129E0
7.1128E2	-19.399E0
7.1169E2	-22.812E0
7.121E2	-35.783E0
7.1251E2	-3.0151E0
7.1292E2	-33.507E0
7.1333E2	-26.908E0
7.1374E2	-23.722E0
7.1415E2	-30.321E0
7.1455E2	-20.992E0
7.1496E2	-10.524E0
7.1537E2	-13.71E0
7.1578E2	-25.543E0
7.1619E2	-3.4702E0
7.166E2	-15.303E0
7.1701E2	-33.052E0
7.1742E2	-16.668E0
7.1783E2	-23.95E0
7.1823E2	-20.537E0
7.1864E2	-5.6888E-2
7.1905E2	-31.687E0
7.1946E2	-26.68E0
7.1987E2	-26.453E0
7.2028E2	-33.735E0
7.2069E2	-31.004E0
7.2109E2	-23.495E0
7.215E2	-12.572E0
7.2191E2	-28.273E0
7.2232E2	-22.357E0
7.2273E2	-21.902E0
7.2313E2	-27.818E0
7.2354E2	-26.68E0
7.2395E2	-1.4222E0
7.2436E2	6.5421E0
7.2477E2	-7.3386E0
7.2517E2	-28.728E0
7.2558E2	-1.4222E0
7.2599E2	-31.687E0
7.264E2	-27.818E0
7.268E2	-7.5661E0
7.2721E2	-9.159E0
7.2762E2	-27.363E0
7.2803E2	-40.106E0
7.2843E2	-31.914E0
7.2884E2	-55.58E0
7.2925E2	-10.297E0
7.2966E2	-26.225E0
7.3006E2	-25.088E0
7.3047E2	-17.806E0
7.3088E2	-29.639E0
7.3129E2	-23.04E0
7.3169E2	-20.081E0
7.321E2	14.051E0
7.3251E2	-12.117E0
7.3291E2	-31.004E0
7.3332E2	-16.441E0
7.3373E2	-5.9732E0
7.3413E2	-33.962E0
7.3454E2	-27.591E0
7.3495E2	-26.908E0
7.3535E2	-5.5181E0
7.3576E2	-21.674E0
7.3617E2	-30.094E0
7.3657E2	-26.68E0
7.3698E2	-22.585E0
7.3738E2	-40.106E0
7.3779E2	-39.651E0
7.382E2	-35.10E0
7.386E2	-27.136E0
7.3901E2	-11.662E0
7.3942E2	-22.357E0
7.3982E2	-3.2426E0
7.4023E2	-21.674E0
7.4063E2	-29.411E0
7.4104E2	-42.382E0
7.4145E2	-18.716E0
7.4185E2	-22.812E0
7.4226E2	-36.92E0
7.4266E2	-34.645E0
7.4307E2	-34.417E0
7.4347E2	-33.279E0
7.4388E2	-14.848E0
7.4428E2	-19.399E0
7.4469E2	-38.741E0
7.4509E2	-21.902E0
7.455E2	-22.812E0
7.4591E2	-27.136E0
7.4631E2	-8.0212E0
7.4672E2	-10.297E0
7.4712E2	-19.399E0
7.4753E2	-4.3804E0
7.4793E2	-42.154E0
7.4834E2	-47.16E0
7.4874E2	-29.184E0
7.4915E2	-50.573E0
7.4955E2	-35.327E0
7.4995E2	-15.758E0
7.5036E2	-38.513E0
7.5076E2	-18.716E0
7.5117E2	-20.309E0
7.5157E2	-40.334E0
7.5198E2	-49.663E0
7.5238E2	-10.297E0
7.5279E2	-27.591E0
7.5319E2	-34.19E0
7.5359E2	-32.597E0
7.540E2	-29.411E0
7.544E2	-14.165E0
7.5481E2	-32.824E0
7.5521E2	-37.148E0
7.5562E2	-38.058E0
7.5602E2	-31.914E0
7.5642E2	-41.471E0
7.5683E2	-34.645E0
7.5723E2	-27.818E0
7.5763E2	-33.052E0
7.5804E2	-29.639E0
7.5844E2	-45.795E0
7.5885E2	-1.1946E0
7.5925E2	-53.759E0
7.5965E2	-20.537E0
7.6006E2	-27.136E0
7.6046E2	-29.639E0
7.6086E2	-46.705E0
7.6127E2	-4.1528E0
7.6167E2	-41.926E0
7.6207E2	-6.2008E0
7.6248E2	-14.62E0
7.6288E2	-24.86E0
7.6328E2	-11.207E0
7.6368E2	-48.07E0
7.6409E2	-14.62E0
7.6449E2	1.536E0
7.6489E2	-35.555E0
7.653E2	-22.585E0
7.657E2	-28.273E0
7.661E2	-45.795E0
7.665E2	-42.837E0
7.6691E2	-25.088E0
7.6731E2	-38.968E0
7.6771E2	-20.992E0
7.6811E2	-8.7039E0
7.6852E2	-23.267E0
7.6892E2	-24.86E0
7.6932E2	-40.106E0
7.6972E2	-45.567E0
7.7012E2	-28.046E0
7.7053E2	-30.776E0
7.7093E2	-13.71E0
7.7133E2	-23.495E0
7.7173E2	-25.543E0
7.7213E2	-30.094E0
7.7254E2	-38.058E0
7.7294E2	-48.07E0
7.7334E2	-13.71E0
7.7374E2	-54.669E0
7.7414E2	-26.453E0
7.7454E2	-32.824E0
7.7495E2	-45.112E0
7.7535E2	-26.453E0
7.7575E2	-29.639E0
7.7615E2	-8.4763E0
7.7655E2	-41.244E0
7.7695E2	-27.136E0
7.7735E2	-11.434E0
7.7775E2	-15.986E0
7.7816E2	-25.315E0
7.7856E2	-30.094E0
7.7896E2	-36.92E0
7.7936E2	-20.537E0
7.7976E2	-24.86E0
7.8016E2	-34.645E0
7.8056E2	-30.094E0
7.8096E2	-38.741E0
7.8136E2	-36.92E0
7.8176E2	-16.668E0
7.8216E2	-28.273E0
7.8256E2	-26.453E0
7.8296E2	-23.04E0
7.8337E2	-15.758E0
7.8377E2	-31.687E0
7.8417E2	-33.052E0
7.8457E2	-38.968E0
7.8497E2	-34.19E0
7.8537E2	-29.866E0
7.8577E2	-30.094E0
7.8617E2	-56.262E0
7.8657E2	-36.01E0
7.8697E2	-17.351E0
7.8737E2	-36.01E0
7.8777E2	-27.363E0
7.8817E2	-31.914E0
7.8857E2	-33.052E0
7.8896E2	-54.897E0
7.8936E2	-24.405E0
7.8976E2	-24.633E0
7.9016E2	-36.693E0
7.9056E2	-36.238E0
7.9096E2	-46.022E0
7.9136E2	-8.0212E0
7.9176E2	-22.357E0
7.9216E2	-40.334E0
7.9256E2	-34.417E0
7.9296E2	-23.95E0
7.9336E2	-30.549E0
7.9376E2	-28.273E0
7.9416E2	-39.651E0
7.9455E2	-36.92E0
7.9495E2	-43.747E0
7.9535E2	-44.43E0
7.9575E2	-50.346E0
7.9615E2	-46.25E0
7.9655E2	-46.933E0
7.9695E2	-41.699E0
7.9734E2	-31.459E0
7.9774E2	-24.633E0
7.9814E2	-1.6498E0
7.9854E2	-13.938E0
7.9894E2	-7.111E0
7.9934E2	-16.441E0
7.9973E2	-30.094E0
8.0013E2	-15.53E0
8.0053E2	-6.2008E0
8.0093E2	-21.219E0
8.0133E2	-29.866E0
8.0172E2	-33.507E0
8.0212E2	-37.603E0
8.0252E2	-32.824E0
8.0292E2	-25.77E0
8.0332E2	-34.645E0
8.0371E2	-32.597E0
8.0411E2	-17.578E0
8.0451E2	-26.908E0
8.0491E2	-9.159E0
8.053E2	-21.674E0
8.057E2	-24.86E0
8.061E2	-18.034E0
8.065E2	-29.866E0
8.0689E2	-22.129E0
8.0729E2	-14.848E0
8.0769E2	-49.663E0
8.0808E2	-48.753E0
8.0848E2	-20.309E0
8.0888E2	-30.549E0
8.0928E2	-22.357E0
8.0967E2	-19.626E0
8.1007E2	-34.645E0
8.1047E2	-14.62E0
8.1086E2	-26.225E0
8.1126E2	-5.2906E0
8.1166E2	-29.639E0
8.1205E2	-42.609E0
8.1245E2	-43.519E0
8.1284E2	-40.334E0
8.1324E2	-26.68E0
8.1364E2	-44.657E0
8.1403E2	-40.106E0
8.1443E2	-18.489E0
8.1483E2	-41.244E0
8.1522E2	-32.369E0
8.1562E2	-33.052E0
8.1601E2	-21.447E0
8.1641E2	-11.434E0
8.1681E2	-29.639E0
8.172E2	-24.633E0
8.176E2	-20.764E0
8.1799E2	-39.879E0
8.1839E2	-33.735E0
8.1878E2	-25.315E0
8.1918E2	-2.1049E0
8.1957E2	-25.088E0
8.1997E2	-21.902E0
8.2037E2	-32.597E0
8.2076E2	-31.687E0
8.2116E2	-2.3324E0
8.2155E2	-10.524E0
8.2195E2	-29.639E0
8.2234E2	-39.423E0
8.2274E2	-59.22E0
8.2313E2	-40.789E0
8.2353E2	-30.094E0
8.2392E2	-41.926E0
8.2432E2	-19.626E0
8.2471E2	-19.626E0
8.2511E2	-32.597E0
8.255E2	-23.267E0
8.2589E2	-25.315E0
8.2629E2	-10.979E0
8.2668E2	-26.68E0
8.2708E2	-31.232E0
8.2747E2	-29.184E0
8.2787E2	-21.902E0
8.2826E2	-29.866E0
8.2866E2	-27.591E0
8.2905E2	-28.956E0
8.2944E2	-33.052E0
8.2984E2	-18.034E0
8.3023E2	-21.219E0
8.3063E2	-27.136E0
8.3102E2	-51.711E0
8.3141E2	-53.304E0
8.3181E2	-50.346E0
8.322E2	-40.561E0
8.3259E2	-5.7457E0
8.3299E2	-33.052E0
8.3338E2	-54.442E0
8.3378E2	-21.674E0
8.3417E2	-38.513E0
8.3456E2	-32.369E0
8.3496E2	-17.806E0
8.3535E2	-23.267E0
8.3574E2	-20.081E0
8.3613E2	-35.327E0
8.3653E2	-22.357E0
8.3692E2	-2.3324E0
8.3731E2	-41.926E0
8.3771E2	-6.6559E0
8.381E2	-20.081E0
8.3849E2	-35.783E0
8.3889E2	-43.064E0
8.3928E2	-27.591E0
8.3967E2	-37.831E0
8.4006E2	-26.908E0
8.4046E2	-33.507E0
8.4085E2	-39.196E0
8.4124E2	-36.465E0
8.4163E2	-11.662E0
8.4203E2	-28.956E0
8.4242E2	-43.292E0
8.4281E2	-23.95E0
8.432E2	-23.267E0
8.4359E2	-34.417E0
8.4399E2	-51.484E0
8.4438E2	-43.747E0
8.4477E2	-15.758E0
8.4516E2	-27.363E0
8.4555E2	-24.86E0
8.4595E2	-48.981E0
8.4634E2	-15.075E0
8.4673E2	-21.902E0
8.4712E2	-32.597E0
8.4751E2	-28.273E0
8.479E2	-49.663E0
8.4829E2	-35.327E0
8.4869E2	-31.914E0
8.4908E2	-42.382E0
8.4947E2	-29.411E0
8.4986E2	-15.758E0
8.5025E2	-34.417E0
8.5064E2	-25.77E0
8.5103E2	-26.453E0
8.5142E2	-37.148E0
8.5181E2	-27.136E0
8.5221E2	-4.3804E0
8.526E2	-34.872E0
8.5299E2	-19.399E0
8.5338E2	-32.824E0
8.5377E2	-17.123E0
8.5416E2	-22.129E0
8.5455E2	-36.465E0
8.5494E2	-12.572E0
8.5533E2	-29.411E0
8.5572E2	-7.7937E0
8.5611E2	-18.034E0
8.565E2	-9.3865E0
8.5689E2	-17.123E0
8.5728E2	-41.699E0
8.5767E2	-18.944E0
8.5806E2	-30.776E0
8.5845E2	-26.68E0
8.5884E2	-52.166E0
8.5923E2	-28.728E0
8.5962E2	-33.507E0
8.6001E2	-40.561E0
8.604E2	-49.436E0
8.6079E2	-16.441E0
8.6118E2	-50.573E0
8.6157E2	-40.334E0
8.6196E2	-35.327E0
8.6235E2	-29.184E0
8.6274E2	-32.142E0
8.6313E2	-16.896E0
8.6352E2	-30.094E0
8.639E2	-35.555E0
8.6429E2	-2.7875E0
8.6468E2	-17.351E0
8.6507E2	-29.639E0
8.6546E2	-23.04E0
8.6585E2	-28.501E0
8.6624E2	-23.722E0
8.6663E2	-44.43E0
8.6702E2	-31.004E0
8.674E2	-30.776E0
8.6779E2	-41.244E0
8.6818E2	-23.267E0
8.6857E2	-34.872E0
8.6896E2	-30.094E0
8.6935E2	-7.5661E0
8.6973E2	-26.908E0
8.7012E2	-43.064E0
8.7051E2	-23.722E0
8.709E2	-27.591E0
8.7129E2	-30.321E0
8.7167E2	-33.735E0
8.7206E2	-37.375E0
8.7245E2	-20.537E0
8.7284E2	-28.273E0
8.7323E2	-5.2906E0
8.7361E2	-5.6888E-2
8.740E2	-29.639E0
8.7439E2	-34.19E0
8.7478E2	-37.148E0
8.7516E2	-28.501E0
8.7555E2	-30.321E0
8.7594E2	-24.405E0
8.7633E2	-39.196E0
8.7671E2	-9.3865E0
8.771E2	-27.818E0
8.7749E2	-52.621E0
8.7787E2	-20.764E0
8.7826E2	-38.058E0
8.7865E2	-21.674E0
8.7904E2	-23.495E0
8.7942E2	-50.118E0
8.7981E2	-19.399E0
8.802E2	-32.369E0
8.8058E2	-24.177E0
8.8097E2	-47.388E0
8.8136E2	-36.01E0
8.8174E2	-46.022E0
8.8213E2	-3.6977E0
8.8252E2	-38.058E0
8.829E2	-43.064E0
8.8329E2	-18.944E0
8.8367E2	-23.495E0
8.8406E2	-25.543E0
8.8445E2	-41.471E0
8.8483E2	-33.052E0
8.8522E2	-22.129E0
8.856E2	-25.315E0
8.8599E2	-37.375E0
8.8638E2	-48.07E0
8.8676E2	-27.363E0
8.8715E2	-17.578E0
8.8753E2	-32.824E0
8.8792E2	-43.064E0
8.883E2	-27.363E0
8.8869E2	-28.273E0
8.8907E2	-25.088E0
8.8946E2	-11.207E0
8.8984E2	-28.046E0
8.9023E2	-27.591E0
8.9062E2	-29.639E0
8.910E2	-23.04E0
8.9139E2	-22.812E0
8.9177E2	-23.722E0
8.9216E2	-29.866E0
8.9254E2	3.1288E0
8.9292E2	-4.8355E0
8.9331E2	-48.525E0
8.9369E2	-28.956E0
8.9408E2	-36.92E0
8.9446E2	-29.866E0
8.9485E2	-43.747E0
8.9523E2	-38.741E0
8.9562E2	-33.507E0
8.960E2	-38.513E0
8.9639E2	-40.106E0
8.9677E2	-42.837E0
8.9715E2	-10.069E0
8.9754E2	-42.837E0
8.9792E2	-32.369E0
8.9831E2	-16.441E0
8.9869E2	-25.315E0
8.9907E2	-10.069E0
8.9946E2	-13.027E0
8.9984E2	-35.327E0
9.0022E2	-15.075E0
9.0061E2	-30.321E0
9.0099E2	-25.088E0
9.0138E2	-39.196E0
9.0176E2	-55.807E0
9.0214E2	-33.507E0
9.0253E2	-46.022E0
9.0291E2	-37.375E0
9.0329E2	-25.315E0
9.0368E2	-40.106E0
9.0406E2	-10.752E0
9.0444E2	-47.388E0
9.0482E2	-5.063E0
9.0521E2	-27.818E0
9.0559E2	-24.177E0
9.0597E2	-28.728E0
9.0636E2	-37.148E0
9.0674E2	-8.7039E0
9.0712E2	-13.482E0
9.075E2	-19.626E0
9.0789E2	-12.572E0
9.0827E2	-19.626E0
9.0865E2	-26.225E0
9.0903E2	-29.184E0
9.0941E2	-29.184E0
9.098E2	-36.465E0
9.1018E2	-31.687E0
9.1056E2	-31.004E0
9.1094E2	-37.831E0
9.1133E2	-29.411E0
9.1171E2	-30.321E0
9.1209E2	-22.585E0
9.1247E2	-16.668E0
9.1285E2	-33.507E0
9.1323E2	-14.165E0
9.1362E2	-37.831E0
9.140E2	-28.046E0
9.1438E2	-43.292E0
9.1476E2	-18.716E0
9.1514E2	-68.323E0
9.1552E2	-40.334E0
9.159E2	-40.106E0
9.1629E2	-43.064E0
9.1667E2	-33.052E0
9.1705E2	-20.764E0
9.1743E2	-30.094E0
9.1781E2	-32.824E0
9.1819E2	-15.986E0
9.1857E2	-23.04E0
9.1895E2	-21.902E0
9.1933E2	-20.764E0
9.1971E2	-18.489E0
9.2009E2	-18.034E0
9.2047E2	-18.716E0
9.2085E2	-18.489E0
9.2123E2	-23.267E0
9.2162E2	-34.645E0
9.220E2	-5.063E0
9.2238E2	-25.998E0
9.2276E2	-43.974E0
9.2314E2	-26.908E0
9.2352E2	-21.447E0
9.239E2	-34.417E0
9.2428E2	-10.069E0
9.2466E2	-18.261E0
9.2504E2	-21.219E0
9.2542E2	-35.783E0
9.2579E2	-16.213E0
9.2617E2	-7.111E0
9.2655E2	-41.926E0
9.2693E2	-31.004E0
9.2731E2	-18.261E0
9.2769E2	-10.297E0
9.2807E2	-29.639E0
9.2845E2	-43.519E0
9.2883E2	-49.891E0
9.2921E2	-28.728E0
9.2959E2	-20.537E0
9.2997E2	-17.806E0
9.3035E2	-20.537E0
9.3072E2	-49.436E0
9.311E2	-33.735E0
9.3148E2	-40.106E0
9.3186E2	-42.154E0
9.3224E2	-25.998E0
9.3262E2	-21.902E0
9.330E2	-36.693E0
9.3338E2	-16.896E0
9.3375E2	-31.004E0
9.3413E2	-30.776E0
9.3451E2	-25.77E0
9.3489E2	-40.106E0
9.3527E2	-31.004E0
9.3564E2	-46.933E0
9.3602E2	-35.555E0
9.364E2	-40.106E0
9.3678E2	-29.411E0
9.3716E2	-9.6141E0
9.3753E2	-36.01E0
9.3791E2	-36.01E0
9.3829E2	-30.094E0
9.3867E2	-49.436E0
9.3904E2	-35.10E0
9.3942E2	-34.417E0
9.398E2	-23.495E0
9.4018E2	-49.208E0
9.4055E2	-25.77E0
9.4093E2	-13.71E0
9.4131E2	1.0809E0
9.4169E2	-31.687E0
9.4206E2	-5.2906E0
9.4244E2	-20.537E0
9.4282E2	-38.513E0
9.4319E2	-20.537E0
9.4357E2	-31.004E0
9.4395E2	-28.728E0
9.4432E2	-23.495E0
9.447E2	-35.555E0
9.4508E2	-19.171E0
9.4545E2	-33.507E0
9.4583E2	-26.68E0
9.4621E2	-44.885E0
9.4658E2	-23.267E0
9.4696E2	-19.854E0
9.4733E2	-28.046E0
9.4771E2	-51.199E-2
9.4809E2	-26.453E0
9.4846E2	-26.225E0
9.4884E2	-27.136E0
9.4921E2	-39.651E0
9.4959E2	-22.812E0
9.4997E2	-25.315E0
9.5034E2	-20.992E0
9.5072E2	-22.812E0
9.5109E2	-42.154E0
9.5147E2	-24.86E0
9.5184E2	-15.758E0
9.5222E2	-30.094E0
9.5259E2	-29.639E0
9.5297E2	-34.19E0
9.5335E2	-22.812E0
9.5372E2	-32.824E0
9.541E2	-26.453E0
9.5447E2	-43.064E0
9.5485E2	-27.363E0
9.5522E2	-25.543E0
9.556E2	-30.549E0
9.5597E2	-15.758E0
9.5634E2	-24.633E0
9.5672E2	-19.854E0
9.5709E2	-32.824E0
9.5747E2	-26.908E0
9.5784E2	-33.507E0
9.5822E2	-28.046E0
9.5859E2	-41.471E0
9.5897E2	-46.25E0
9.5934E2	-52.394E0
9.5971E2	-54.897E0
9.6009E2	-42.837E0
9.6046E2	-54.897E0
9.6084E2	-31.914E0
9.6121E2	-38.058E0
9.6158E2	-24.633E0
9.6196E2	-45.112E0
9.6233E2	-20.537E0
9.6271E2	-29.866E0
9.6308E2	-47.843E0
9.6345E2	-39.879E0
9.6383E2	-17.351E0
9.642E2	-49.436E0
9.6457E2	-30.549E0
9.6495E2	-34.872E0
9.6532E2	-37.148E0
9.6569E2	-27.591E0
9.6607E2	-30.321E0
9.6644E2	-16.896E0
9.6681E2	-38.286E0
9.6718E2	-23.722E0
9.6756E2	-42.609E0
9.6793E2	-41.016E0
9.683E2	-42.382E0
9.6867E2	-52.394E0
9.6905E2	-49.891E0
9.6942E2	-32.142E0
9.6979E2	-46.022E0
9.7016E2	-13.938E0
9.7054E2	-27.363E0
9.7091E2	-45.112E0
9.7128E2	-40.334E0
9.7165E2	-55.124E0
9.7203E2	-24.86E0
9.724E2	-14.848E0
9.7277E2	-20.992E0
9.7314E2	-25.088E0
9.7351E2	-24.633E0
9.7389E2	-27.818E0
9.7426E2	-34.872E0
9.7463E2	-20.081E0
9.750E2	-13.027E0
9.7537E2	-20.992E0
9.7574E2	-24.177E0
9.7611E2	-1.4222E0
9.7649E2	17.066E-2
9.7686E2	-9.3865E0
9.7723E2	-35.10E0
9.776E2	-31.914E0
9.7797E2	-12.117E0
9.7834E2	4.5596E2
9.7871E2	-3.2426E0
9.7908E2	-33.052E0
9.7945E2	-23.722E0
9.7982E2	-45.795E0
9.802E2	-36.01E0
9.8057E2	-38.058E0
9.8094E2	-28.728E0
9.8131E2	-31.232E0
9.8168E2	-36.01E0
9.8205E2	-33.735E0
9.8242E2	-11.89E0
9.8279E2	-14.848E0
9.8316E2	-25.088E0
9.8353E2	-37.603E0
9.839E2	-33.507E0
9.8427E2	-49.663E0
9.8464E2	-25.77E0
9.8501E2	-32.369E0
9.8538E2	-39.423E0
9.8575E2	-34.417E0
9.8612E2	-16.668E0
9.8649E2	-27.591E0
9.8686E2	-40.106E0
9.8723E2	-48.07E0
9.876E2	-32.824E0
9.8796E2	-29.639E0
9.8833E2	-27.363E0
9.887E2	-16.441E0
9.8907E2	-41.244E0
9.8944E2	-36.01E0
9.8981E2	-28.501E0
9.9018E2	-33.052E0
9.9055E2	-15.758E0
9.9092E2	-24.86E0
9.9129E2	-8.4763E0
9.9165E2	-51.939E0
9.9202E2	-25.543E0
9.9239E2	-18.489E0
9.9276E2	-9.8416E0
9.9313E2	-18.489E0
9.935E2	-44.885E0
9.9387E2	-28.728E0
9.9423E2	-37.375E0
9.946E2	-34.19E0
9.9497E2	-16.441E0
9.9534E2	-42.382E0
9.9571E2	-28.046E0
9.9607E2	-28.956E0
9.9644E2	-15.758E0
9.9681E2	-14.848E0
9.9718E2	-30.549E0
9.9755E2	-13.482E0
9.9791E2	-40.334E0
9.9828E2	-41.016E0
9.9865E2	-34.872E0
9.9902E2	-22.812E0
9.9938E2	-20.081E0
9.9975E2	-52.166E0
10.001E2	-24.405E0
10.005E2	-40.789E0
10.009E2	-9.159E0
10.012E2	-33.735E0
10.016E2	-33.962E0
10.02E2	-26.453E0
10.023E2	-31.687E0
10.027E2	-22.812E0
10.031E2	-46.022E0
10.034E2	-38.741E0
10.038E2	13.596E0
10.042E2	-37.831E0
10.045E2	-49.436E0
10.049E2	-45.795E0
10.053E2	-48.07E0
10.056E2	-34.645E0
10.06E2	-45.34E0
10.064E2	-33.279E0
10.067E2	-44.657E0
10.071E2	-20.309E0
10.074E2	-27.363E0
10.078E2	-21.674E0
10.082E2	-22.357E0
10.085E2	-27.363E0
10.089E2	-40.561E0
10.093E2	-13.482E0
10.096E2	-34.19E0
10.10E2	-15.53E0
10.104E2	-12.80E0
10.107E2	-21.674E0
10.111E2	-23.95E0
10.115E2	-25.77E0
10.118E2	-16.668E0
10.122E2	-44.657E0
10.126E2	-33.507E0
10.129E2	-18.489E0
10.133E2	-32.597E0
10.137E2	-24.177E0
10.14E2	-58.083E0
10.144E2	-36.92E0
10.148E2	-25.77E0
10.151E2	-33.962E0
10.155E2	-29.639E0
10.158E2	-30.094E0
10.162E2	-42.382E0
10.166E2	-30.094E0
10.169E2	-18.716E0
10.173E2	-36.01E0
10.177E2	-39.196E0
10.18E2	-47.388E0
10.184E2	-52.394E0
10.188E2	-28.273E0
10.191E2	-47.843E0
10.195E2	-23.04E0
10.199E2	-28.046E0
10.202E2	-37.148E0
10.206E2	-33.279E0
10.209E2	-29.184E0
10.213E2	-35.783E0
10.217E2	-27.136E0
10.22E2	-48.298E0
10.224E2	-47.615E0
10.228E2	-41.471E0
10.231E2	-36.238E0
10.235E2	-41.699E0
10.238E2	-20.309E0
10.242E2	-32.597E0
10.246E2	-49.436E0
10.249E2	-29.411E0
10.253E2	-26.908E0
10.257E2	-43.292E0
10.26E2	-31.687E0
10.264E2	-35.327E0
10.267E2	-41.016E0
10.271E2	-29.411E0
10.275E2	-37.148E0
10.278E2	-37.603E0
10.282E2	-25.088E0
10.286E2	-14.393E0
10.289E2	-33.507E0
10.293E2	-15.758E0
10.296E2	-36.01E0
10.30E2	-47.615E0
10.304E2	-35.10E0
10.307E2	-30.094E0
10.311E2	-23.04E0
10.315E2	-19.399E0
10.318E2	-40.334E0
10.322E2	-47.16E0
10.325E2	-27.591E0
10.329E2	-25.998E0
10.333E2	-26.453E0
10.336E2	-41.471E0
10.34E2	-46.705E0
10.343E2	-43.064E0
10.347E2	-33.962E0
10.351E2	-34.417E0
10.354E2	-15.986E0
10.358E2	-35.555E0
10.362E2	-32.369E0
10.365E2	-25.543E0
10.369E2	-31.687E0
10.372E2	-15.303E0
10.376E2	-53.987E0
10.38E2	-16.441E0
