Data from JAZA26501_14-05-52-030.txt Node
Date: Sun Sep 29 14:05:52 ADT 2013
User: oceanview
Spectrometer:  JAZA2650
Trigger mode: 0
Integration Time (sec): 1.000000E-1
Scans to average: 10
Electric dark correction enabled: true
Nonlinearity correction enabled: false
Boxcar width: 0
XAxis mode: Wavelengths
Number of Pixels in Spectrum: 2048
>>>>>Begin Spectral Data<<<<<
1.897E2	-19.001E0
1.9015E2	-19.001E0
1.9061E2	-19.001E0
1.9106E2	-6.2577E0
1.9151E2	1.7066E0
1.9197E2	8.9883E0
1.9242E2	-10.581E0
1.9288E2	14.45E0
1.9333E2	8.7608E0
1.9378E2	9.8985E0
1.9424E2	-17.635E0
1.9469E2	11.946E0
1.9515E2	-56.888E-2
1.956E2	7.8505E0
1.9605E2	20.366E0
1.9651E2	-10.581E0
1.9696E2	-13.312E0
1.9742E2	-6.0301E0
1.9787E2	15.815E0
1.9832E2	2.6168E0
1.9878E2	-36.75E0
1.9923E2	-25.827E0
1.9968E2	-19.228E0
2.0014E2	-21.504E0
2.0059E2	-10.354E0
2.0104E2	-34.133E-2
2.015E2	-9.2159E0
2.0195E2	10.354E0
2.0241E2	-1.024E0
2.0286E2	-14.222E0
2.0331E2	-16.042E0
2.0377E2	56.888E-2
2.0422E2	3.5271E0
2.0467E2	-5.1199E0
2.0513E2	-12.629E0
2.0558E2	1.9342E0
2.0603E2	2.3893E0
2.0649E2	-6.0301E0
2.0694E2	-3.5271E0
2.0739E2	-22.641E0
2.0785E2	-34.702E0
2.083E2	-23.097E0
2.0875E2	-16.27E0
2.0921E2	-3.2995E0
2.0966E2	-10.809E0
2.1011E2	2.3893E0
2.1056E2	-11.719E0
2.1102E2	2.8444E0
2.1147E2	-32.426E0
2.1192E2	-12.857E0
2.1238E2	-27.192E0
2.1283E2	-7.623E0
2.1328E2	21.504E0
2.1374E2	-29.013E0
2.1419E2	1.9342E0
2.1464E2	-30.833E0
2.1509E2	-23.552E0
2.1555E2	-21.504E0
2.160E2	-23.324E0
2.1645E2	-24.917E0
2.169E2	-13.994E0
2.1736E2	-10.126E0
2.1781E2	-3.072E0
2.1826E2	-21.276E0
2.1872E2	-34.133E-2
2.1917E2	-3.072E0
2.1962E2	-19.911E0
2.2007E2	-12.174E0
2.2053E2	-12.629E0
2.2098E2	-7.8505E0
2.2143E2	-34.019E0
2.2188E2	-1.024E0
2.2234E2	-16.725E0
2.2279E2	-8.3057E0
2.2324E2	-1.024E0
2.2369E2	-15.132E0
2.2414E2	34.133E-2
2.246E2	-24.689E0
2.2505E2	-1.4791E0
2.255E2	-14.45E0
2.2595E2	-21.731E0
2.2641E2	-5.575E0
2.2686E2	-26.282E0
2.2731E2	-15.587E0
2.2776E2	-16.725E0
2.2821E2	-19.228E0
2.2867E2	-6.0301E0
2.2912E2	-5.8026E0
2.2957E2	-13.767E0
2.3002E2	-9.4434E0
2.3047E2	-26.282E0
2.3093E2	2.6168E0
2.3138E2	-12.629E0
2.3183E2	11.719E0
2.3228E2	-14.45E0
2.3273E2	1.024E0
2.3318E2	-1.2515E0
2.3364E2	-8.5332E0
2.3409E2	-10.126E0
2.3454E2	-22.414E0
2.3499E2	-21.276E0
2.3544E2	8.3057E0
2.3589E2	4.4373E0
2.3635E2	-18.773E0
2.368E2	-5.8026E0
2.3725E2	-18.09E0
2.377E2	-20.366E0
2.3815E2	2.3893E0
2.386E2	-6.2577E0
2.3905E2	-5.1199E0
2.3951E2	-10.581E0
2.3996E2	4.2097E0
2.4041E2	-17.18E0
2.4086E2	-11.946E0
2.4131E2	-37.432E0
2.4176E2	-2.3893E0
2.4221E2	-21.959E0
2.4266E2	-20.138E0
2.4312E2	-12.174E0
2.4357E2	3.9822E0
2.4402E2	9.8985E0
2.4447E2	-15.587E0
2.4492E2	-5.1199E0
2.4537E2	13.767E0
2.4582E2	-22.414E0
2.4627E2	-14.905E0
2.4672E2	15.36E0
2.4717E2	-11.036E0
2.4763E2	-13.539E0
2.4808E2	6.0301E0
2.4853E2	4.4373E0
2.4898E2	-11.719E0
2.4943E2	-12.402E0
2.4988E2	-10.354E0
2.5033E2	-26.737E0
2.5078E2	-16.042E0
2.5123E2	-16.498E0
2.5168E2	-2.6168E0
2.5213E2	-24.689E0
2.5258E2	-19.683E0
2.5303E2	-19.456E0
2.5348E2	-5.1199E0
2.5393E2	-6.4852E0
2.5438E2	-8.5332E0
2.5484E2	-3.9822E0
2.5529E2	-9.4434E0
2.5574E2	-19.228E0
2.5619E2	-16.498E0
2.5664E2	-12.857E0
2.5709E2	-12.174E0
2.5754E2	-28.103E0
2.5799E2	-14.677E0
2.5844E2	-8.9883E0
2.5889E2	-5.575E0
2.5934E2	1.9342E0
2.5979E2	-12.402E0
2.6024E2	-7.3954E0
2.6069E2	-7.623E0
2.6114E2	-13.994E0
2.6159E2	-7.3954E0
2.6204E2	-16.725E0
2.6249E2	-8.3057E0
2.6294E2	-18.773E0
2.6339E2	-5.575E0
2.6384E2	-7.8505E0
2.6429E2	-15.587E0
2.6474E2	10.581E0
2.6519E2	-2.1617E0
2.6564E2	-10.581E0
2.6609E2	21.959E0
2.6654E2	-20.138E0
2.6699E2	-9.2159E0
2.6744E2	11.036E0
2.6789E2	56.888E-2
2.6833E2	-13.084E0
2.6878E2	-8.3057E0
2.6923E2	-14.677E0
2.6968E2	-6.7128E0
2.7013E2	-5.8026E0
2.7058E2	-3.2995E0
2.7103E2	-5.575E0
2.7148E2	18.318E0
2.7193E2	-11.946E0
2.7238E2	22.641E0
2.7283E2	-6.2577E0
2.7328E2	21.049E0
2.7373E2	-6.2577E0
2.7418E2	3.9822E0
2.7463E2	-9.671E0
2.7507E2	-8.3057E0
2.7552E2	-19.683E0
2.7597E2	2.6168E0
2.7642E2	-56.888E-2
2.7687E2	-11.036E0
2.7732E2	6.9403E0
2.7777E2	-19.228E0
2.7822E2	-4.8924E0
2.7867E2	-6.2577E0
2.7912E2	-10.126E0
2.7956E2	12.402E0
2.8001E2	-6.2577E0
2.8046E2	8.0781E0
2.8091E2	-18.545E0
2.8136E2	34.133E-2
2.8181E2	13.312E0
2.8226E2	-1.024E0
2.8271E2	-4.8924E0
2.8315E2	11.719E0
2.836E2	10.581E0
2.8405E2	-2.3893E0
2.845E2	-8.9883E0
2.8495E2	-16.27E0
2.854E2	-12.629E0
2.8585E2	34.133E-2
2.8629E2	21.731E0
2.8674E2	16.042E0
2.8719E2	34.929E0
2.8764E2	6.0301E0
2.8809E2	11.946E0
2.8854E2	14.45E0
2.8898E2	-9.4434E0
2.8943E2	-7.8505E0
2.8988E2	28.33E0
2.9033E2	-11.719E0
2.9078E2	-2.1617E0
2.9122E2	11.378E-2
2.9167E2	8.0781E0
2.9212E2	-2.1617E0
2.9257E2	-11.378E-2
2.9302E2	-11.719E0
2.9346E2	8.7608E0
2.9391E2	8.9883E0
2.9436E2	-1.024E0
2.9481E2	5.575E0
2.9526E2	6.7128E0
2.957E2	10.354E0
2.9615E2	2.6168E0
2.966E2	12.857E0
2.9705E2	28.103E0
2.9749E2	-6.2577E0
2.9794E2	-13.994E0
2.9839E2	-13.084E0
2.9884E2	15.36E0
2.9928E2	-5.575E0
2.9973E2	-5.575E0
3.0018E2	-6.0301E0
3.0063E2	24.917E0
3.0107E2	5.8026E0
3.0152E2	2.6168E0
3.0197E2	-79.643E-2
3.0242E2	13.312E0
3.0286E2	10.809E0
3.0331E2	1.7066E0
3.0376E2	6.7128E0
3.0421E2	1.024E0
3.0465E2	8.0781E0
3.051E2	13.767E0
3.0555E2	23.552E0
3.0599E2	24.917E0
3.0644E2	25.827E0
3.0689E2	15.587E0
3.0734E2	15.815E0
3.0778E2	24.007E0
3.0823E2	21.276E0
3.0868E2	-1.7066E0
3.0912E2	6.9403E0
3.0957E2	15.36E0
3.1002E2	-5.575E0
3.1046E2	28.558E0
3.1091E2	47.217E0
3.1136E2	12.629E0
3.118E2	24.007E0
3.1225E2	39.708E0
3.127E2	23.324E0
3.1314E2	32.199E0
3.1359E2	38.343E0
3.1404E2	19.228E0
3.1448E2	38.57E0
3.1493E2	27.875E0
3.1538E2	14.45E0
3.1582E2	72.703E0
3.1627E2	21.731E0
3.1672E2	36.522E0
3.1716E2	21.504E0
3.1761E2	17.18E0
3.1805E2	41.756E0
3.185E2	31.971E0
3.1895E2	32.426E0
3.1939E2	28.558E0
3.1984E2	22.186E0
3.2029E2	34.247E0
3.2073E2	50.858E0
3.2118E2	49.265E0
3.2162E2	43.121E0
3.2207E2	46.079E0
3.2252E2	29.24E0
3.2296E2	64.511E0
3.2341E2	41.983E0
3.2385E2	63.146E0
3.243E2	48.582E0
3.2474E2	66.104E0
3.2519E2	62.918E0
3.2564E2	57.002E0
3.2608E2	55.181E0
3.2653E2	74.296E0
3.2697E2	65.649E0
3.2742E2	54.954E0
3.2786E2	77.026E0
3.2831E2	79.074E0
3.2876E2	74.523E0
3.292E2	73.613E0
3.2965E2	80.895E0
3.3009E2	68.607E0
3.3054E2	94.775E0
3.3098E2	1.0775E2
3.3143E2	92.50E0
3.3187E2	99.782E0
3.3232E2	84.536E0
3.3276E2	92.272E0
3.3321E2	62.691E0
3.3365E2	91.362E0
3.341E2	73.613E0
3.3454E2	1.0228E2
3.3499E2	1.0593E2
3.3543E2	1.0775E2
3.3588E2	1.189E2
3.3632E2	1.0502E2
3.3677E2	99.326E0
3.3721E2	91.817E0
3.3766E2	1.0866E2
3.381E2	1.1298E2
3.3855E2	1.1457E2
3.3899E2	1.2413E2
3.3944E2	1.1025E2
3.3988E2	1.2117E2
3.4033E2	1.123E2
3.4077E2	1.2299E2
3.4122E2	1.2549E2
3.4166E2	1.1708E2
3.4211E2	1.239E2
3.4255E2	1.0706E2
3.430E2	1.346E2
3.4344E2	1.4165E2
3.4388E2	1.3118E2
3.4433E2	1.2481E2
3.4477E2	1.2914E2
3.4522E2	1.2436E2
3.4566E2	1.1981E2
3.4611E2	1.2618E2
3.4655E2	1.2527E2
3.470E2	1.3073E2
3.4744E2	1.0911E2
3.4788E2	1.0365E2
3.4833E2	1.1867E2
3.4877E2	1.2504E2
3.4922E2	1.1981E2
3.4966E2	1.1048E2
3.501E2	1.4415E2
3.5055E2	1.3596E2
3.5099E2	1.3141E2
3.5144E2	1.5144E2
3.5188E2	1.214E2
3.5232E2	1.1981E2
3.5277E2	1.4029E2
3.5321E2	1.5257E2
3.5365E2	1.5098E2
3.541E2	1.4529E2
3.5454E2	1.5803E2
3.5499E2	1.7942E2
3.5543E2	1.7305E2
3.5587E2	1.5667E2
3.5632E2	1.8238E2
3.5676E2	1.4939E2
3.572E2	1.6714E2
3.5765E2	1.6896E2
3.5809E2	1.817E2
3.5853E2	1.817E2
3.5898E2	1.7988E2
3.5942E2	2.0582E2
3.5986E2	2.1037E2
3.6031E2	2.0036E2
3.6075E2	2.2016E2
3.6119E2	2.2107E2
3.6164E2	2.1856E2
3.6208E2	2.3882E2
3.6252E2	2.0696E2
3.6297E2	2.3927E2
3.6341E2	2.5634E2
3.6385E2	2.6498E2
3.6429E2	2.7932E2
3.6474E2	2.5634E2
3.6518E2	2.7659E2
3.6562E2	3.2324E2
3.6607E2	3.0526E2
3.6651E2	3.4372E2
3.6695E2	4.0584E2
3.6739E2	3.8263E2
3.6784E2	4.336E2
3.6828E2	4.5226E2
3.6872E2	5.1393E2
3.6916E2	5.5466E2
3.6961E2	6.4204E2
3.7005E2	7.185E2
3.7049E2	7.5627E2
3.7093E2	8.7346E2
3.7138E2	9.4901E2
3.7182E2	10.978E2
3.7226E2	12.289E2
3.727E2	13.581E2
3.7315E2	15.40E2
3.7359E2	17.402E2
3.7403E2	19.901E2
3.7447E2	23.034E2
3.7492E2	25.532E2
3.7536E2	29.05E2
3.758E2	33.233E2
3.7624E2	37.743E2
3.7668E2	43.375E2
3.7713E2	48.488E2
3.7757E2	54.281E2
3.7801E2	61.702E2
3.7845E2	70.456E2
3.7889E2	78.909E2
3.7934E2	89.081E2
3.7978E2	99.767E2
3.8022E2	1.1277E4
3.8066E2	1.2764E4
3.811E2	1.4241E4
3.8154E2	1.5958E4
3.8199E2	1.7737E4
3.8243E2	1.9997E4
3.8287E2	2.228E4
3.8331E2	2.484E4
3.8375E2	2.7412E4
3.8419E2	3.0453E4
3.8463E2	3.2688E4
3.8508E2	3.5828E4
3.8552E2	3.8741E4
3.8596E2	4.1846E4
3.864E2	4.4404E4
3.8684E2	4.7997E4
3.8728E2	5.0812E4
3.8772E2	5.2353E4
3.8816E2	5.4707E4
3.8861E2	5.5806E4
3.8905E2	5.7104E4
3.8949E2	5.8477E4
3.8993E2	5.9217E4
3.9037E2	6.0176E4
3.9081E2	6.029E4
3.9125E2	6.0977E4
3.9169E2	6.1187E4
3.9213E2	6.1735E4
3.9257E2	6.1855E4
3.9301E2	6.1272E4
3.9346E2	6.1432E4
3.939E2	6.1082E4
3.9434E2	6.1282E4
3.9478E2	6.0485E4
3.9522E2	6.0511E4
3.9566E2	5.9125E4
3.961E2	5.8764E4
3.9654E2	5.7989E4
3.9698E2	5.6991E4
3.9742E2	5.5526E4
3.9786E2	5.4097E4
3.983E2	5.2526E4
3.9874E2	5.064E4
3.9918E2	4.8078E4
3.9962E2	4.6014E4
4.0006E2	4.4198E4
4.005E2	4.1157E4
4.0094E2	3.9608E4
4.0138E2	3.670E4
4.0182E2	3.5617E4
4.0226E2	3.3566E4
4.027E2	3.1804E4
4.0314E2	2.9971E4
4.0358E2	2.8762E4
4.0402E2	2.7508E4
4.0446E2	2.6037E4
4.049E2	2.4533E4
4.0534E2	2.3357E4
4.0578E2	2.2354E4
4.0622E2	2.1426E4
4.0666E2	2.0014E4
4.071E2	1.880E4
4.0754E2	1.822E4
4.0798E2	1.6835E4
4.0842E2	1.5971E4
4.0886E2	1.5086E4
4.093E2	1.4094E4
4.0974E2	1.3557E4
4.1018E2	1.265E4
4.1062E2	1.1913E4
4.1106E2	1.1215E4
4.115E2	1.0639E4
4.1194E2	1.009E4
4.1237E2	93.343E2
4.1281E2	88.744E2
4.1325E2	86.123E2
4.1369E2	80.52E2
4.1413E2	76.486E2
4.1457E2	74.565E2
4.1501E2	71.082E2
4.1545E2	69.011E2
4.1589E2	65.238E2
4.1633E2	62.146E2
4.1676E2	61.131E2
4.172E2	58.928E2
4.1764E2	57.656E2
4.1808E2	55.453E2
4.1852E2	53.135E2
4.1896E2	51.646E2
4.194E2	48.984E2
4.1984E2	48.725E2
4.2027E2	46.624E2
4.2071E2	46.608E2
4.2115E2	44.419E2
4.2159E2	43.839E2
4.2203E2	42.483E2
4.2247E2	40.954E2
4.2291E2	39.668E2
4.2334E2	39.211E2
4.2378E2	37.463E2
4.2422E2	36.801E2
4.2466E2	36.717E2
4.251E2	35.192E2
4.2554E2	33.977E2
4.2597E2	33.476E2
4.2641E2	33.169E2
4.2685E2	32.291E2
4.2729E2	31.437E2
4.2773E2	30.966E2
4.2816E2	30.031E2
4.286E2	29.057E2
4.2904E2	29.05E2
4.2948E2	28.352E2
4.2991E2	27.669E2
4.3035E2	27.405E2
4.3079E2	27.082E2
4.3123E2	26.541E2
4.3167E2	25.692E2
4.321E2	25.558E2
4.3254E2	24.463E2
4.3298E2	24.686E2
4.3342E2	24.04E2
4.3385E2	23.753E2
4.3429E2	23.387E2
4.3473E2	23.057E2
4.3517E2	22.508E2
4.356E2	23.077E2
4.3604E2	22.579E2
4.3648E2	22.201E2
4.3692E2	21.685E2
4.3735E2	21.671E2
4.3779E2	21.282E2
4.3823E2	21.214E2
4.3866E2	20.608E2
4.391E2	21.202E2
4.3954E2	20.856E2
4.3997E2	21.409E2
4.4041E2	20.64E2
4.4085E2	20.456E2
4.4129E2	20.608E2
4.4172E2	20.526E2
4.4216E2	20.413E2
4.426E2	20.406E2
4.4303E2	20.24E2
4.4347E2	20.365E2
4.4391E2	20.74E2
4.4434E2	20.162E2
4.4478E2	20.702E2
4.4522E2	20.788E2
4.4565E2	20.49E2
4.4609E2	20.171E2
4.4653E2	20.378E2
4.4696E2	20.365E2
4.474E2	20.585E2
4.4783E2	20.811E2
4.4827E2	20.428E2
4.4871E2	20.708E2
4.4914E2	20.524E2
4.4958E2	20.353E2
4.5002E2	20.447E2
4.5045E2	20.456E2
4.5089E2	20.449E2
4.5132E2	20.526E2
4.5176E2	20.474E2
4.522E2	20.269E2
4.5263E2	20.094E2
4.5307E2	19.536E2
4.535E2	19.926E2
4.5394E2	19.78E2
4.5437E2	19.298E2
4.5481E2	19.53E2
4.5525E2	19.259E2
4.5568E2	19.245E2
4.5612E2	19.434E2
4.5655E2	19.059E2
4.5699E2	18.754E2
4.5742E2	18.852E2
4.5786E2	18.842E2
4.5829E2	18.592E2
4.5873E2	18.854E2
4.5917E2	18.26E2
4.596E2	18.508E2
4.6004E2	18.198E2
4.6047E2	18.31E2
4.6091E2	18.078E2
4.6134E2	17.593E2
4.6178E2	17.878E2
4.6221E2	17.206E2
4.6265E2	17.641E2
4.6308E2	17.30E2
4.6352E2	17.627E2
4.6395E2	17.149E2
4.6439E2	16.847E2
4.6482E2	16.87E2
4.6526E2	16.824E2
4.6569E2	16.833E2
4.6613E2	16.578E2
4.6656E2	16.298E2
4.670E2	16.49E2
4.6743E2	16.257E2
4.6787E2	16.185E2
4.683E2	16.344E2
4.6873E2	16.107E2
4.6917E2	15.978E2
4.696E2	16.278E2
4.7004E2	15.741E2
4.7047E2	15.693E2
4.7091E2	15.889E2
4.7134E2	15.659E2
4.7177E2	15.504E2
4.7221E2	15.297E2
4.7264E2	15.245E2
4.7308E2	15.163E2
4.7351E2	15.345E2
4.7395E2	15.422E2
4.7438E2	15.42E2
4.7481E2	15.149E2
4.7525E2	15.165E2
4.7568E2	14.717E2
4.7612E2	14.721E2
4.7655E2	14.794E2
4.7698E2	14.733E2
4.7742E2	14.772E2
4.7785E2	14.58E2
4.7828E2	14.423E2
4.7872E2	14.36E2
4.7915E2	14.426E2
4.7959E2	14.046E2
4.8002E2	13.98E2
4.8045E2	14.271E2
4.8089E2	14.114E2
4.8132E2	14.312E2
4.8175E2	14.187E2
4.8219E2	14.009E2
4.8262E2	13.95E2
4.8305E2	13.95E2
4.8349E2	13.966E2
4.8392E2	13.759E2
4.8435E2	13.893E2
4.8479E2	13.622E2
4.8522E2	13.343E2
4.8565E2	13.424E2
4.8608E2	13.418E2
4.8652E2	13.422E2
4.8695E2	13.336E2
4.8738E2	13.247E2
4.8782E2	13.299E2
4.8825E2	13.074E2
4.8868E2	13.035E2
4.8911E2	12.871E2
4.8955E2	13.076E2
4.8998E2	12.74E2
4.9041E2	12.91E2
4.9084E2	12.498E2
4.9128E2	12.567E2
4.9171E2	12.589E2
4.9214E2	12.453E2
4.9257E2	12.828E2
4.9301E2	12.328E2
4.9344E2	12.505E2
4.9387E2	12.33E2
4.943E2	12.205E2
4.9474E2	12.307E2
4.9517E2	11.993E2
4.956E2	12.073E2
4.9603E2	11.973E2
4.9647E2	11.556E2
4.969E2	11.738E2
4.9733E2	11.431E2
4.9776E2	11.315E2
4.9819E2	11.463E2
4.9862E2	11.053E2
4.9906E2	11.367E2
4.9949E2	11.233E2
4.9992E2	10.946E2
5.0035E2	11.017E2
5.0078E2	10.878E2
5.0122E2	11.151E2
5.0165E2	10.726E2
5.0208E2	10.546E2
5.0251E2	10.512E2
5.0294E2	10.293E2
5.0337E2	10.286E2
5.038E2	10.423E2
5.0424E2	10.343E2
5.0467E2	9.9702E2
5.051E2	10.063E2
5.0553E2	9.8223E2
5.0596E2	9.7517E2
5.0639E2	9.8268E2
5.0682E2	9.688E2
5.0725E2	9.6903E2
5.0769E2	9.6175E2
5.0812E2	9.5378E2
5.0855E2	9.5765E2
5.0898E2	9.4286E2
5.0941E2	9.415E2
5.0984E2	9.4127E2
5.1027E2	9.3763E2
5.107E2	9.4445E2
5.1113E2	9.3513E2
5.1156E2	9.0168E2
5.1199E2	8.9667E2
5.1242E2	8.8939E2
5.1285E2	8.6345E2
5.1329E2	8.7642E2
5.1372E2	8.9121E2
5.1415E2	8.7027E2
5.1458E2	8.6231E2
5.1501E2	8.573E2
5.1544E2	8.2658E2
5.1587E2	8.3204E2
5.163E2	8.4297E2
5.1673E2	8.1885E2
5.1716E2	8.1407E2
5.1759E2	8.1521E2
5.1802E2	7.9177E2
5.1845E2	7.9655E2
5.1888E2	7.8631E2
5.1931E2	7.8449E2
5.1974E2	7.8562E2
5.2017E2	7.6583E2
5.206E2	7.7174E2
5.2103E2	7.6651E2
5.2146E2	7.4739E2
5.2189E2	7.6947E2
5.2232E2	7.7743E2
5.2275E2	7.4762E2
5.2318E2	7.433E2
5.2361E2	7.3875E2
5.2404E2	7.3101E2
5.2447E2	7.4307E2
5.2489E2	7.2327E2
5.2532E2	7.1417E2
5.2575E2	7.2396E2
5.2618E2	7.2828E2
5.2661E2	7.4626E2
5.2704E2	7.2009E2
5.2747E2	7.0006E2
5.279E2	7.2692E2
5.2833E2	7.0393E2
5.2876E2	6.8231E2
5.2919E2	7.1508E2
5.2962E2	7.0348E2
5.3004E2	7.1281E2
5.3047E2	7.0757E2
5.309E2	6.9278E2
5.3133E2	7.3124E2
5.3176E2	6.8345E2
5.3219E2	6.9369E2
5.3262E2	7.0143E2
5.3305E2	7.0097E2
5.3348E2	6.9551E2
5.339E2	6.6479E2
5.3433E2	6.896E2
5.3476E2	6.6843E2
5.3519E2	6.7594E2
5.3562E2	6.921E2
5.3605E2	6.8049E2
5.3647E2	6.6525E2
5.369E2	6.6639E2
5.3733E2	6.7344E2
5.3776E2	6.5478E2
5.3819E2	6.5387E2
5.3862E2	6.7958E2
5.3904E2	6.5478E2
5.3947E2	6.6821E2
5.399E2	6.6161E2
5.4033E2	6.3362E2
5.4076E2	6.3726E2
5.4118E2	6.1792E2
5.4161E2	6.3407E2
5.4204E2	6.434E2
5.4247E2	6.5023E2
5.4289E2	6.2497E2
5.4332E2	6.7867E2
5.4375E2	6.5637E2
5.4418E2	6.2907E2
5.4461E2	6.2338E2
5.4503E2	6.4136E2
5.4546E2	6.3476E2
5.4589E2	6.5637E2
5.4632E2	6.475E2
5.4674E2	6.2179E2
5.4717E2	6.4249E2
5.476E2	6.4477E2
5.4802E2	6.293E2
5.4845E2	6.6161E2
5.4888E2	6.6161E2
5.4931E2	6.2065E2
5.4973E2	6.3794E2
5.5016E2	6.1837E2
5.5059E2	6.4067E2
5.5101E2	6.2088E2
5.5144E2	6.3931E2
5.5187E2	6.3225E2
5.5229E2	6.4704E2
5.5272E2	6.4181E2
5.5315E2	6.2474E2
5.5357E2	6.4272E2
5.540E2	6.2474E2
5.5443E2	6.500E2
5.5485E2	6.3862E2
5.5528E2	6.5637E2
5.5571E2	6.2839E2
5.5613E2	6.3749E2
5.5656E2	6.3589E2
5.5699E2	6.3021E2
5.5741E2	6.095E2
5.5784E2	6.0131E2
5.5827E2	6.1086E2
5.5869E2	6.2793E2
5.5912E2	6.3931E2
5.5954E2	6.0062E2
5.5997E2	6.004E2
5.604E2	5.8265E2
5.6082E2	6.161E2
5.6125E2	5.9357E2
5.6167E2	5.8947E2
5.621E2	5.9448E2
5.6253E2	5.8583E2
5.6295E2	5.9653E2
5.6338E2	5.922E2
5.638E2	5.7332E2
5.6423E2	5.7741E2
5.6465E2	5.7127E2
5.6508E2	5.6194E2
5.6551E2	5.8356E2
5.6593E2	5.8219E2
5.6636E2	5.765E2
5.6678E2	5.7036E2
5.6721E2	5.7491E2
5.6763E2	5.5602E2
5.6806E2	5.583E2
5.6848E2	5.8856E2
5.6891E2	5.7605E2
5.6933E2	5.7923E2
5.6976E2	5.8174E2
5.7018E2	5.7969E2
5.7061E2	5.765E2
5.7103E2	5.6285E2
5.7146E2	5.7992E2
5.7188E2	5.4942E2
5.7231E2	5.542E2
5.7273E2	5.5011E2
5.7316E2	5.5966E2
5.7358E2	5.6808E2
5.7401E2	5.5511E2
5.7443E2	5.699E2
5.7486E2	5.6262E2
5.7528E2	5.8037E2
5.7571E2	5.4533E2
5.7613E2	5.6217E2
5.7655E2	5.7514E2
5.7698E2	5.7059E2
5.774E2	5.5693E2
5.7783E2	5.8037E2
5.7825E2	5.385E2
5.7868E2	5.6285E2
5.791E2	5.4738E2
5.7952E2	5.6581E2
5.7995E2	5.5671E2
5.8037E2	5.6308E2
5.808E2	5.5147E2
5.8122E2	5.4965E2
5.8164E2	5.6899E2
5.8207E2	5.4237E2
5.8249E2	5.6626E2
5.8291E2	5.476E2
5.8334E2	5.5671E2
5.8376E2	5.4556E2
5.8419E2	5.6308E2
5.8461E2	5.426E2
5.8503E2	5.335E2
5.8546E2	5.360E2
5.8588E2	5.4032E2
5.863E2	5.3486E2
5.8673E2	5.8629E2
5.8715E2	5.3077E2
5.8757E2	5.4897E2
5.880E2	5.451E2
5.8842E2	5.4738E2
5.8884E2	5.3281E2
5.8927E2	5.385E2
5.8969E2	5.3736E2
5.9011E2	5.3896E2
5.9054E2	5.2348E2
5.9096E2	5.2166E2
5.9138E2	5.2963E2
5.918E2	5.2121E2
5.9223E2	5.3395E2
5.9265E2	5.3054E2
5.9307E2	5.1461E2
5.9349E2	5.4078E2
5.9392E2	5.2257E2
5.9434E2	5.4942E2
5.9476E2	5.2758E2
5.9519E2	5.1802E2
5.9561E2	5.4715E2
5.9603E2	5.1484E2
5.9645E2	5.3054E2
5.9687E2	5.2712E2
5.973E2	5.2644E2
5.9772E2	4.980E2
5.9814E2	5.3099E2
5.9856E2	5.2166E2
5.9899E2	5.2485E2
5.9941E2	5.3941E2
5.9983E2	5.4897E2
6.0025E2	5.2235E2
6.0067E2	5.4624E2
6.011E2	5.4556E2
6.0152E2	5.3645E2
6.0194E2	5.1165E2
6.0236E2	4.8571E2
6.0278E2	4.8821E2
6.032E2	5.1074E2
6.0363E2	5.1552E2
6.0405E2	5.0141E2
6.0447E2	5.0187E2
6.0489E2	4.9868E2
6.0531E2	4.9527E2
6.0573E2	4.7433E2
6.0615E2	4.8321E2
6.0658E2	4.6933E2
6.070E2	4.9754E2
6.0742E2	4.6978E2
6.0784E2	4.9026E2
6.0826E2	4.7456E2
6.0868E2	4.6546E2
6.091E2	4.6978E2
6.0952E2	4.8093E2
6.0995E2	4.5909E2
6.1037E2	4.6637E2
6.1079E2	4.3724E2
6.1121E2	4.4953E2
6.1163E2	4.295E2
6.1205E2	4.3041E2
6.1247E2	4.3656E2
6.1289E2	3.9423E2
6.1331E2	4.1926E2
6.1373E2	4.1312E2
6.1415E2	3.9514E2
6.1457E2	4.0584E2
6.1499E2	4.0311E2
6.1541E2	3.9469E2
6.1583E2	3.7262E2
6.1625E2	3.8377E2
6.1667E2	3.6943E2
6.1709E2	3.7466E2
6.1751E2	3.6124E2
6.1794E2	3.8377E2
6.1836E2	3.6351E2
6.1878E2	3.576E2
6.192E2	3.4918E2
6.1962E2	3.7353E2
6.2003E2	3.3917E2
6.2045E2	3.5851E2
6.2087E2	3.4804E2
6.2129E2	3.1163E2
6.2171E2	3.2779E2
6.2213E2	3.2733E2
6.2255E2	3.1049E2
6.2297E2	3.4235E2
6.2339E2	3.2711E2
6.2381E2	3.0663E2
6.2423E2	3.1232E2
6.2465E2	2.9252E2
6.2507E2	3.1254E2
6.2549E2	3.2301E2
6.2591E2	3.1004E2
6.2633E2	3.0799E2
6.2675E2	2.9707E2
6.2717E2	3.1232E2
6.2759E2	3.0936E2
6.280E2	3.246E2
6.2842E2	2.8478E2
6.2884E2	2.8865E2
6.2926E2	2.8137E2
6.2968E2	3.0003E2
6.301E2	2.8615E2
6.3052E2	2.7067E2
6.3094E2	2.6089E2
6.3135E2	2.6612E2
6.3177E2	2.6498E2
6.3219E2	2.5429E2
6.3261E2	2.7181E2
6.3303E2	2.4541E2
6.3345E2	2.6271E2
6.3387E2	2.3313E2
6.3428E2	2.5201E2
6.347E2	2.4109E2
6.3512E2	2.4974E2
6.3554E2	2.5201E2
6.3596E2	2.4541E2
6.3638E2	2.2061E2
6.3679E2	2.3813E2
6.3721E2	2.3244E2
6.3763E2	2.6021E2
6.3805E2	2.2038E2
6.3847E2	2.0605E2
6.3888E2	2.106E2
6.393E2	2.1606E2
6.3972E2	2.1788E2
6.4014E2	1.8784E2
6.4055E2	2.0923E2
6.4097E2	1.9422E2
6.4139E2	1.9535E2
6.4181E2	2.1242E2
6.4222E2	1.999E2
6.4264E2	2.0264E2
6.4306E2	2.0628E2
6.4348E2	1.999E2
6.4389E2	1.9763E2
6.4431E2	1.5917E2
6.4473E2	1.553E2
6.4515E2	1.949E2
6.4556E2	1.7465E2
6.4598E2	1.7374E2
6.464E2	1.9854E2
6.4681E2	1.635E2
6.4723E2	1.7351E2
6.4765E2	1.8193E2
6.4806E2	1.660E2
6.4848E2	1.6714E2
6.489E2	1.4484E2
6.4931E2	1.6668E2
6.4973E2	1.5803E2
6.5015E2	1.5235E2
6.5056E2	1.4029E2
6.5098E2	1.4393E2
6.514E2	1.462E2
6.5181E2	1.4438E2
6.5223E2	1.3346E2
6.5265E2	1.4279E2
6.5306E2	1.5621E2
6.5348E2	1.3869E2
6.5389E2	1.2458E2
6.5431E2	1.2936E2
6.5473E2	1.3847E2
6.5514E2	1.2823E2
6.5556E2	1.3005E2
6.5597E2	1.189E2
6.5639E2	1.0638E2
6.5681E2	1.1389E2
6.5722E2	1.016E2
6.5764E2	1.0615E2
6.5805E2	1.0888E2
6.5847E2	98.871E0
6.5889E2	1.1002E2
6.593E2	92.955E0
6.5972E2	1.0797E2
6.6013E2	94.093E0
6.6055E2	93.865E0
6.6096E2	1.0593E2
6.6138E2	94.548E0
6.6179E2	1.0979E2
6.6221E2	82.715E0
6.6262E2	66.787E0
6.6304E2	74.296E0
6.6345E2	87.949E0
6.6387E2	72.93E0
6.6428E2	69.062E0
6.647E2	80.895E0
6.6511E2	75.889E0
6.6553E2	54.499E0
6.6594E2	88.859E0
6.6636E2	74.296E0
6.6677E2	84.763E0
6.6719E2	82.715E0
6.676E2	64.283E0
6.6802E2	81.35E0
6.6843E2	80.44E0
6.6885E2	59.505E0
6.6926E2	58.595E0
6.6967E2	64.966E0
6.7009E2	62.463E0
6.705E2	72.248E0
6.7092E2	60.87E0
6.7133E2	47.672E0
6.7175E2	55.181E0
6.7216E2	65.421E0
6.7257E2	45.624E0
6.7299E2	57.684E0
6.734E2	49.72E0
6.7382E2	45.852E0
6.7423E2	40.846E0
6.7464E2	58.14E0
6.7506E2	35.157E0
6.7547E2	59.277E0
6.7588E2	35.157E0
6.763E2	26.282E0
6.7671E2	33.791E0
6.7713E2	30.833E0
6.7754E2	36.067E0
6.7795E2	58.367E0
6.7837E2	36.522E0
6.7878E2	37.887E0
6.7919E2	49.72E0
6.7961E2	11.719E0
6.8002E2	39.025E0
6.8043E2	15.132E0
6.8085E2	62.463E0
6.8126E2	42.211E0
6.8167E2	44.942E0
6.8208E2	23.552E0
6.825E2	30.606E0
6.8291E2	9.8985E0
6.8332E2	26.965E0
6.8374E2	26.282E0
6.8415E2	6.7128E0
6.8456E2	40.39E0
6.8497E2	15.587E0
6.8539E2	26.282E0
6.858E2	33.109E0
6.8621E2	35.612E0
6.8662E2	44.714E0
6.8704E2	27.875E0
6.8745E2	27.192E0
6.8786E2	40.618E0
6.8827E2	21.276E0
6.8869E2	19.683E0
6.891E2	34.702E0
6.8951E2	36.75E0
6.8992E2	19.456E0
6.9033E2	-11.378E-2
6.9075E2	21.731E0
6.9116E2	6.2577E0
6.9157E2	-7.623E0
6.9198E2	32.881E0
6.9239E2	3.5271E0
6.928E2	32.654E0
6.9322E2	15.587E0
6.9363E2	6.7128E0
6.9404E2	1.2515E0
6.9445E2	4.6648E0
6.9486E2	9.4434E0
6.9527E2	-2.6168E0
6.9568E2	6.7128E0
6.961E2	17.635E0
6.9651E2	5.575E0
6.9692E2	15.36E0
6.9733E2	6.0301E0
6.9774E2	9.4434E0
6.9815E2	9.2159E0
6.9856E2	11.264E0
6.9897E2	-21.276E0
6.9939E2	-1.9342E0
6.998E2	-11.719E0
7.0021E2	6.2577E0
7.0062E2	-11.264E0
7.0103E2	-22.414E0
7.0144E2	7.1679E0
7.0185E2	19.911E0
7.0226E2	2.6168E0
7.0267E2	10.581E0
7.0308E2	34.247E0
7.0349E2	27.192E0
7.039E2	10.126E0
7.0431E2	-12.402E0
7.0472E2	-3.2995E0
7.0513E2	-56.888E-2
7.0554E2	-13.084E0
7.0595E2	11.264E0
7.0636E2	-1.4791E0
7.0677E2	-14.905E0
7.0718E2	7.623E0
7.0759E2	5.8026E0
7.080E2	-12.174E0
7.0841E2	-1.024E0
7.0882E2	28.33E0
7.0923E2	15.815E0
7.0964E2	-12.857E0
7.1005E2	-2.8444E0
7.1046E2	5.8026E0
7.1087E2	-36.75E0
7.1128E2	3.5271E0
7.1169E2	-16.725E0
7.121E2	-14.905E0
7.1251E2	-14.677E0
7.1292E2	-11.946E0
7.1333E2	-4.8924E0
7.1374E2	-13.994E0
7.1415E2	-7.623E0
7.1455E2	6.2577E0
7.1496E2	-11.719E0
7.1537E2	-6.4852E0
7.1578E2	-10.126E0
7.1619E2	6.7128E0
7.166E2	-16.953E0
7.1701E2	3.2995E0
7.1742E2	-29.468E0
7.1783E2	-37.432E0
7.1823E2	-2.1617E0
7.1864E2	-6.2577E0
7.1905E2	-15.36E0
7.1946E2	-6.9403E0
7.1987E2	-21.276E0
7.2028E2	-19.683E0
7.2069E2	-36.75E0
7.2109E2	-6.4852E0
7.215E2	4.6648E0
7.2191E2	-9.671E0
7.2232E2	-3.9822E0
7.2273E2	-13.084E0
7.2313E2	-26.055E0
7.2354E2	-23.097E0
7.2395E2	-16.498E0
7.2436E2	10.581E0
7.2477E2	-8.3057E0
7.2517E2	-26.055E0
7.2558E2	-8.9883E0
7.2599E2	-10.126E0
7.264E2	-22.641E0
7.268E2	-21.731E0
7.2721E2	-11.946E0
7.2762E2	-16.953E0
7.2803E2	-21.959E0
7.2843E2	-27.875E0
7.2884E2	-16.725E0
7.2925E2	-26.737E0
7.2966E2	-23.552E0
7.3006E2	6.2577E0
7.3047E2	-21.731E0
7.3088E2	-9.8985E0
7.3129E2	-39.708E0
7.3169E2	-21.049E0
7.321E2	-8.3057E0
7.3251E2	-14.222E0
7.3291E2	-10.354E0
7.3332E2	-29.24E0
7.3373E2	-25.60E0
7.3413E2	-24.007E0
7.3454E2	-32.199E0
7.3495E2	-8.3057E0
7.3535E2	-28.558E0
7.3576E2	-22.186E0
7.3617E2	-33.109E0
7.3657E2	-16.042E0
7.3698E2	-12.174E0
7.3738E2	-34.474E0
7.3779E2	-19.228E0
7.382E2	-24.007E0
7.386E2	-8.5332E0
7.3901E2	-6.9403E0
7.3942E2	-9.671E0
7.3982E2	-22.186E0
7.4023E2	-10.354E0
7.4063E2	6.4852E0
7.4104E2	-6.9403E0
7.4145E2	-31.288E0
7.4185E2	-28.33E0
7.4226E2	-6.0301E0
7.4266E2	-21.959E0
7.4307E2	-28.103E0
7.4347E2	-20.593E0
7.4388E2	-22.869E0
7.4428E2	-10.809E0
7.4469E2	-9.8985E0
7.4509E2	-46.534E0
7.455E2	-40.618E0
7.4591E2	-8.7608E0
7.4631E2	7.8505E0
7.4672E2	-20.138E0
7.4712E2	-6.7128E0
7.4753E2	-20.821E0
7.4793E2	-31.288E0
7.4834E2	-20.821E0
7.4874E2	-30.378E0
7.4915E2	-39.253E0
7.4955E2	-24.007E0
7.4995E2	-16.498E0
7.5036E2	-33.564E0
7.5076E2	-13.994E0
7.5117E2	9.671E0
7.5157E2	-7.1679E0
7.5198E2	-16.27E0
7.5238E2	-33.109E0
7.5279E2	-16.27E0
7.5319E2	-18.545E0
7.5359E2	-28.558E0
7.540E2	-19.001E0
7.544E2	-16.27E0
7.5481E2	-14.677E0
7.5521E2	-37.66E0
7.5562E2	-39.935E0
7.5602E2	-36.295E0
7.5642E2	-21.504E0
7.5683E2	-22.641E0
7.5723E2	-24.462E0
7.5763E2	-15.587E0
7.5804E2	-29.923E0
7.5844E2	-24.234E0
7.5885E2	-11.946E0
7.5925E2	-28.785E0
7.5965E2	-42.211E0
7.6006E2	-31.971E0
7.6046E2	-32.199E0
7.6086E2	-21.731E0
7.6127E2	-13.767E0
7.6167E2	-17.18E0
7.6207E2	-9.8985E0
7.6248E2	4.8924E0
7.6288E2	-20.593E0
7.6328E2	-15.587E0
7.6368E2	-51.085E0
7.6409E2	-44.031E0
7.6449E2	-27.648E0
7.6489E2	-31.288E0
7.653E2	-26.737E0
7.657E2	-9.2159E0
7.661E2	-25.827E0
7.665E2	-23.324E0
7.6691E2	-26.737E0
7.6731E2	16.042E0
7.6771E2	-26.51E0
7.6811E2	-25.372E0
7.6852E2	-30.378E0
7.6892E2	-38.798E0
7.6932E2	-13.767E0
7.6972E2	-25.372E0
7.7012E2	-20.366E0
7.7053E2	-27.648E0
7.7093E2	-18.318E0
7.7133E2	-22.414E0
7.7173E2	-17.635E0
7.7213E2	-20.366E0
7.7254E2	-21.504E0
7.7294E2	-37.432E0
7.7334E2	-39.025E0
7.7374E2	-31.061E0
7.7414E2	-24.007E0
7.7454E2	-34.019E0
7.7495E2	-19.911E0
7.7535E2	-40.39E0
7.7575E2	-16.725E0
7.7615E2	-20.593E0
7.7655E2	-25.145E0
7.7695E2	-16.042E0
7.7735E2	-1.7066E0
7.7775E2	-20.138E0
7.7816E2	-8.5332E0
7.7856E2	-18.773E0
7.7896E2	-39.48E0
7.7936E2	-34.474E0
7.7976E2	-24.234E0
7.8016E2	-18.318E0
7.8056E2	-26.282E0
7.8096E2	-13.084E0
7.8136E2	-33.336E0
7.8176E2	-32.881E0
7.8216E2	-30.378E0
7.8256E2	-62.918E0
7.8296E2	-42.666E0
7.8337E2	-28.33E0
7.8377E2	-11.491E0
7.8417E2	-40.846E0
7.8457E2	-29.24E0
7.8497E2	-16.27E0
7.8537E2	-13.994E0
7.8577E2	-16.953E0
7.8617E2	-33.336E0
7.8657E2	-13.539E0
7.8697E2	-18.773E0
7.8737E2	-41.301E0
7.8777E2	-22.869E0
7.8817E2	-27.875E0
7.8857E2	-15.36E0
7.8896E2	-16.498E0
7.8936E2	-16.725E0
7.8976E2	-41.301E0
7.9016E2	-33.564E0
7.9056E2	-32.199E0
7.9096E2	-21.049E0
7.9136E2	-27.42E0
7.9176E2	6.4852E0
7.9216E2	-24.917E0
7.9256E2	11.378E-2
7.9296E2	-38.798E0
7.9336E2	-29.013E0
7.9376E2	-14.222E0
7.9416E2	-11.946E0
7.9455E2	-31.288E0
7.9495E2	-24.462E0
7.9535E2	-34.702E0
7.9575E2	-22.869E0
7.9615E2	-46.534E0
7.9655E2	-21.049E0
7.9695E2	-17.635E0
7.9734E2	-37.887E0
7.9774E2	-33.791E0
7.9814E2	-23.779E0
7.9854E2	-14.677E0
7.9894E2	-24.234E0
7.9934E2	-27.42E0
7.9973E2	-15.132E0
8.0013E2	-35.157E0
8.0053E2	-43.349E0
8.0093E2	-19.456E0
8.0133E2	-29.468E0
8.0172E2	-25.372E0
8.0212E2	-40.39E0
8.0252E2	-18.318E0
8.0292E2	-26.055E0
8.0332E2	-40.163E0
8.0371E2	-31.516E0
8.0411E2	-27.875E0
8.0451E2	-26.965E0
8.0491E2	-20.138E0
8.053E2	-25.372E0
8.057E2	-26.282E0
8.061E2	-16.27E0
8.065E2	-32.881E0
8.0689E2	-30.151E0
8.0729E2	-27.648E0
8.0769E2	-18.773E0
8.0808E2	-20.593E0
8.0848E2	-33.791E0
8.0888E2	-37.66E0
8.0928E2	-19.683E0
8.0967E2	-12.857E0
8.1007E2	-8.3057E0
8.1047E2	-21.504E0
8.1086E2	-28.558E0
8.1126E2	-24.462E0
8.1166E2	-21.049E0
8.1205E2	-8.0781E0
8.1245E2	-26.737E0
8.1284E2	-32.881E0
8.1324E2	-28.785E0
8.1364E2	-13.767E0
8.1403E2	-25.60E0
8.1443E2	-23.324E0
8.1483E2	-9.671E0
8.1522E2	-12.402E0
8.1562E2	-30.606E0
8.1601E2	-25.145E0
8.1641E2	-39.708E0
8.1681E2	-43.576E0
8.172E2	-3.9822E0
8.176E2	-5.1199E0
8.1799E2	-23.324E0
8.1839E2	-27.192E0
8.1878E2	-22.869E0
8.1918E2	-37.432E0
8.1957E2	-15.587E0
8.1997E2	-19.683E0
8.2037E2	-26.51E0
8.2076E2	-15.36E0
8.2116E2	-42.666E0
8.2155E2	-14.677E0
8.2195E2	-30.833E0
8.2234E2	-35.157E0
8.2274E2	-34.019E0
8.2313E2	-33.109E0
8.2353E2	-27.648E0
8.2392E2	-16.498E0
8.2432E2	-27.875E0
8.2471E2	-41.756E0
8.2511E2	-19.456E0
8.255E2	-37.887E0
8.2589E2	-32.199E0
8.2629E2	-41.983E0
8.2668E2	-26.282E0
8.2708E2	-29.696E0
8.2747E2	-22.869E0
8.2787E2	-13.994E0
8.2826E2	-22.869E0
8.2866E2	-30.378E0
8.2905E2	-19.911E0
8.2944E2	-40.163E0
8.2984E2	-25.372E0
8.3023E2	-22.414E0
8.3063E2	-23.097E0
8.3102E2	-22.414E0
8.3141E2	-29.468E0
8.3181E2	-21.731E0
8.322E2	-26.51E0
8.3259E2	-6.9403E0
8.3299E2	-25.145E0
8.3338E2	-10.809E0
8.3378E2	-27.648E0
8.3417E2	-39.708E0
8.3456E2	-24.689E0
8.3496E2	-32.426E0
8.3535E2	-24.462E0
8.3574E2	-23.552E0
8.3613E2	-30.606E0
8.3653E2	-32.881E0
8.3692E2	-21.276E0
8.3731E2	-48.355E0
8.3771E2	-16.725E0
8.381E2	-47.90E0
8.3849E2	-16.042E0
8.3889E2	-13.994E0
8.3928E2	-17.408E0
8.3967E2	-13.539E0
8.4006E2	-32.881E0
8.4046E2	-33.109E0
8.4085E2	-36.295E0
8.4124E2	-14.45E0
8.4163E2	-10.354E0
8.4203E2	-34.247E0
8.4242E2	-22.641E0
8.4281E2	-36.295E0
8.432E2	-34.019E0
8.4359E2	-33.791E0
8.4399E2	-16.725E0
8.4438E2	-33.791E0
8.4477E2	-34.474E0
8.4516E2	-24.689E0
8.4555E2	-14.677E0
8.4595E2	-43.349E0
8.4634E2	-24.234E0
8.4673E2	-26.965E0
8.4712E2	-34.019E0
8.4751E2	-49.493E0
8.479E2	-12.629E0
8.4829E2	-33.791E0
8.4869E2	-15.132E0
8.4908E2	-18.545E0
8.4947E2	-22.869E0
8.4986E2	-16.953E0
8.5025E2	-13.084E0
8.5064E2	-37.66E0
8.5103E2	-19.911E0
8.5142E2	-24.234E0
8.5181E2	-31.744E0
8.5221E2	-34.702E0
8.526E2	-30.833E0
8.5299E2	-33.791E0
8.5338E2	-24.917E0
8.5377E2	-16.725E0
8.5416E2	-41.528E0
8.5455E2	-3.072E0
8.5494E2	-21.731E0
8.5533E2	-22.641E0
8.5572E2	-13.084E0
8.5611E2	-1.4791E0
8.565E2	-33.109E0
8.5689E2	-39.253E0
8.5728E2	-26.737E0
8.5767E2	-15.587E0
8.5806E2	-24.689E0
8.5845E2	-27.42E0
8.5884E2	-25.827E0
8.5923E2	-27.42E0
8.5962E2	-17.863E0
8.6001E2	-16.953E0
8.604E2	-29.923E0
8.6079E2	-31.288E0
8.6118E2	-22.186E0
8.6157E2	-34.247E0
8.6196E2	-30.378E0
8.6235E2	-33.336E0
8.6274E2	-25.827E0
8.6313E2	-17.18E0
8.6352E2	-24.007E0
8.639E2	-38.115E0
8.6429E2	-21.959E0
8.6468E2	-32.199E0
8.6507E2	-15.815E0
8.6546E2	-26.282E0
8.6585E2	-24.462E0
8.6624E2	-26.737E0
8.6663E2	-6.9403E0
8.6702E2	-38.798E0
8.674E2	-24.917E0
8.6779E2	-26.282E0
8.6818E2	-31.061E0
8.6857E2	-35.384E0
8.6896E2	-28.33E0
8.6935E2	-4.6648E0
8.6973E2	-35.157E0
8.7012E2	-33.564E0
8.7051E2	-8.3057E0
8.709E2	-42.666E0
8.7129E2	-25.827E0
8.7167E2	-23.779E0
8.7206E2	-31.288E0
8.7245E2	-37.432E0
8.7284E2	-23.324E0
8.7323E2	-25.827E0
8.7361E2	-19.683E0
8.740E2	-34.929E0
8.7439E2	-22.414E0
8.7478E2	-12.857E0
8.7516E2	-31.971E0
8.7555E2	-32.654E0
8.7594E2	1.024E0
8.7633E2	-32.654E0
8.7671E2	-13.994E0
8.771E2	-32.881E0
8.7749E2	-10.809E0
8.7787E2	-31.061E0
8.7826E2	-48.355E0
8.7865E2	-8.9883E0
8.7904E2	-26.965E0
8.7942E2	-21.504E0
8.7981E2	-1.4791E0
8.802E2	-21.049E0
8.8058E2	-37.887E0
8.8097E2	-52.451E0
8.8136E2	-12.174E0
8.8174E2	-21.959E0
8.8213E2	-53.816E0
8.8252E2	-31.288E0
8.829E2	-37.887E0
8.8329E2	-35.157E0
8.8367E2	-26.965E0
8.8406E2	-2.1617E0
8.8445E2	-21.276E0
8.8483E2	-28.785E0
8.8522E2	-18.545E0
8.856E2	-30.151E0
8.8599E2	-28.785E0
8.8638E2	-10.581E0
8.8676E2	-6.7128E0
8.8715E2	-29.696E0
8.8753E2	-25.145E0
8.8792E2	-36.295E0
8.883E2	-24.007E0
8.8869E2	-21.049E0
8.8907E2	-38.115E0
8.8946E2	-26.737E0
8.8984E2	-13.767E0
8.9023E2	-24.234E0
8.9062E2	-8.9883E0
8.910E2	-21.959E0
8.9139E2	-30.833E0
8.9177E2	-46.762E0
8.9216E2	-12.174E0
8.9254E2	-14.677E0
8.9292E2	-5.575E0
8.9331E2	-27.192E0
8.9369E2	-10.126E0
8.9408E2	-37.66E0
8.9446E2	-23.097E0
8.9485E2	-59.05E0
8.9523E2	-19.001E0
8.9562E2	-51.996E0
8.960E2	-24.689E0
8.9639E2	-27.875E0
8.9677E2	-12.402E0
8.9715E2	-20.821E0
8.9754E2	-14.222E0
8.9792E2	-25.60E0
8.9831E2	-37.432E0
8.9869E2	-33.336E0
8.9907E2	-19.683E0
8.9946E2	-28.785E0
8.9984E2	-19.001E0
9.0022E2	-13.084E0
9.0061E2	-18.09E0
9.0099E2	-27.42E0
9.0138E2	-38.115E0
9.0176E2	-19.456E0
9.0214E2	-56.888E-2
9.0253E2	-20.593E0
9.0291E2	-21.049E0
9.0329E2	-31.516E0
9.0368E2	-19.228E0
9.0406E2	-31.061E0
9.0444E2	-25.60E0
9.0482E2	-12.174E0
9.0521E2	-39.253E0
9.0559E2	-26.737E0
9.0597E2	2.3893E0
9.0636E2	-27.875E0
9.0674E2	-29.013E0
9.0712E2	-36.522E0
9.075E2	-27.42E0
9.0789E2	11.378E-2
9.0827E2	-28.785E0
9.0865E2	-9.671E0
9.0903E2	-23.552E0
9.0941E2	-36.75E0
9.098E2	-40.618E0
9.1018E2	-22.414E0
9.1056E2	-20.366E0
9.1094E2	-27.192E0
9.1133E2	-41.756E0
9.1171E2	-36.067E0
9.1209E2	-19.911E0
9.1247E2	-6.9403E0
9.1285E2	-26.965E0
9.1323E2	-13.084E0
9.1362E2	-31.288E0
9.140E2	-16.042E0
9.1438E2	-19.001E0
9.1476E2	-21.731E0
9.1514E2	-17.408E0
9.1552E2	-25.145E0
9.159E2	-36.295E0
9.1629E2	-25.60E0
9.1667E2	-13.539E0
9.1705E2	-17.18E0
9.1743E2	-39.253E0
9.1781E2	-36.067E0
9.1819E2	-45.169E0
9.1857E2	-13.767E0
9.1895E2	-20.138E0
9.1933E2	-20.821E0
9.1971E2	-23.097E0
9.2009E2	-79.643E-2
9.2047E2	-1.2515E0
9.2085E2	-13.084E0
9.2123E2	-6.7128E0
9.2162E2	-8.9883E0
9.220E2	-17.18E0
9.2238E2	-16.725E0
9.2276E2	-20.138E0
9.2314E2	-33.791E0
9.2352E2	-26.055E0
9.239E2	-21.049E0
9.2428E2	-36.295E0
9.2466E2	-24.007E0
9.2504E2	-19.001E0
9.2542E2	-27.192E0
9.2579E2	-25.827E0
9.2617E2	-17.408E0
9.2655E2	-23.324E0
9.2693E2	-17.863E0
9.2731E2	-41.756E0
9.2769E2	-37.432E0
9.2807E2	-28.558E0
9.2845E2	-27.42E0
9.2883E2	-33.564E0
9.2921E2	-33.336E0
9.2959E2	-15.132E0
9.2997E2	-31.971E0
9.3035E2	-27.875E0
9.3072E2	-35.157E0
9.311E2	-23.779E0
9.3148E2	-26.51E0
9.3186E2	-29.468E0
9.3224E2	-37.432E0
9.3262E2	-40.39E0
9.330E2	-16.498E0
9.3338E2	-42.438E0
9.3375E2	-44.714E0
9.3413E2	-38.343E0
9.3451E2	-47.445E0
9.3489E2	-28.785E0
9.3527E2	-18.545E0
9.3564E2	-20.138E0
9.3602E2	-31.061E0
9.364E2	-32.426E0
9.3678E2	-36.522E0
9.3716E2	-29.468E0
9.3753E2	-8.9883E0
9.3791E2	-6.0301E0
9.3829E2	-28.558E0
9.3867E2	-22.641E0
9.3904E2	-22.414E0
9.3942E2	-14.905E0
9.398E2	4.2097E0
9.4018E2	-33.336E0
9.4055E2	-15.815E0
9.4093E2	-13.994E0
9.4131E2	-26.965E0
9.4169E2	-29.696E0
9.4206E2	-19.911E0
9.4244E2	-27.192E0
9.4282E2	-41.983E0
9.4319E2	-35.384E0
9.4357E2	-37.66E0
9.4395E2	-33.564E0
9.4432E2	-12.402E0
9.447E2	-30.606E0
9.4508E2	-16.042E0
9.4545E2	-22.641E0
9.4583E2	-28.103E0
9.4621E2	-28.785E0
9.4658E2	-18.09E0
9.4696E2	-38.343E0
9.4733E2	-31.516E0
9.4771E2	-21.959E0
9.4809E2	-36.977E0
9.4846E2	-39.253E0
9.4884E2	-26.737E0
9.4921E2	-23.097E0
9.4959E2	-10.126E0
9.4997E2	-49.948E0
9.5034E2	-28.785E0
9.5072E2	-5.8026E0
9.5109E2	-46.99E0
9.5147E2	-45.852E0
9.5184E2	-34.929E0
9.5222E2	-46.99E0
9.5259E2	-20.138E0
9.5297E2	-41.983E0
9.5335E2	-10.126E0
9.5372E2	-6.4852E0
9.541E2	-19.911E0
9.5447E2	-41.073E0
9.5485E2	-25.827E0
9.5522E2	-22.186E0
9.556E2	-25.60E0
9.5597E2	-21.731E0
9.5634E2	-23.552E0
9.5672E2	-31.971E0
9.5709E2	-44.259E0
9.5747E2	-34.247E0
9.5784E2	-12.174E0
9.5822E2	-54.271E0
9.5859E2	-45.852E0
9.5897E2	-36.977E0
9.5934E2	-35.384E0
9.5971E2	-36.067E0
9.6009E2	-34.474E0
9.6046E2	-14.677E0
9.6084E2	-19.683E0
9.6121E2	-29.468E0
9.6158E2	-38.798E0
9.6196E2	-11.491E0
9.6233E2	-23.779E0
9.6271E2	-12.629E0
9.6308E2	-12.402E0
9.6345E2	-31.061E0
9.6383E2	-18.545E0
9.642E2	-22.414E0
9.6457E2	-4.6648E0
9.6495E2	-26.51E0
9.6532E2	-39.935E0
9.6569E2	-52.678E0
9.6607E2	-21.276E0
9.6644E2	-27.192E0
9.6681E2	-38.343E0
9.6718E2	-29.24E0
9.6756E2	-23.779E0
9.6793E2	-25.145E0
9.683E2	-38.798E0
9.6867E2	-26.737E0
9.6905E2	-19.683E0
9.6942E2	-28.33E0
9.6979E2	-43.121E0
9.7016E2	-29.923E0
9.7054E2	-54.044E0
9.7091E2	-34.019E0
9.7128E2	-24.007E0
9.7165E2	-13.539E0
9.7203E2	-25.372E0
9.724E2	-41.528E0
9.7277E2	-34.019E0
9.7314E2	-38.115E0
9.7351E2	-26.282E0
9.7389E2	-22.186E0
9.7426E2	-24.462E0
9.7463E2	-28.558E0
9.750E2	-17.18E0
9.7537E2	-34.019E0
9.7574E2	-36.977E0
9.7611E2	-24.007E0
9.7649E2	3.5271E0
9.7686E2	-25.372E0
9.7723E2	-32.881E0
9.776E2	-31.516E0
9.7797E2	-31.061E0
9.7834E2	4.666E2
9.7871E2	-19.911E0
9.7908E2	-1.2515E0
9.7945E2	-11.491E0
9.7982E2	-30.606E0
9.802E2	2.6168E0
9.8057E2	-28.558E0
9.8094E2	-33.336E0
9.8131E2	-34.702E0
9.8168E2	-39.48E0
9.8205E2	-35.157E0
9.8242E2	-16.953E0
9.8279E2	-29.24E0
9.8316E2	-25.145E0
9.8353E2	-23.097E0
9.839E2	-39.025E0
9.8427E2	-23.552E0
9.8464E2	-26.51E0
9.8501E2	-33.336E0
9.8538E2	-23.552E0
9.8575E2	-25.827E0
9.8612E2	-46.307E0
9.8649E2	-12.857E0
9.8686E2	-24.007E0
9.8723E2	-29.24E0
9.876E2	-36.522E0
9.8796E2	-32.199E0
9.8833E2	-20.821E0
9.887E2	-3.072E0
9.8907E2	-30.606E0
9.8944E2	-34.929E0
9.8981E2	-22.869E0
9.9018E2	-13.539E0
9.9055E2	-37.205E0
9.9092E2	-34.702E0
9.9129E2	-9.671E0
9.9165E2	-25.372E0
9.9202E2	-26.965E0
9.9239E2	-25.372E0
9.9276E2	-27.648E0
9.9313E2	-45.852E0
9.935E2	-11.491E0
9.9387E2	-34.474E0
9.9423E2	-30.151E0
9.946E2	-31.288E0
9.9497E2	-21.959E0
9.9534E2	-16.725E0
9.9571E2	-21.504E0
9.9607E2	-16.953E0
9.9644E2	-29.696E0
9.9681E2	-33.564E0
9.9718E2	-37.205E0
9.9755E2	-25.372E0
9.9791E2	-29.923E0
9.9828E2	-39.935E0
9.9865E2	-18.545E0
9.9902E2	-26.51E0
9.9938E2	-24.689E0
9.9975E2	-30.151E0
10.001E2	-28.33E0
10.005E2	-13.539E0
10.009E2	-50.63E0
10.012E2	-24.917E0
10.016E2	-46.079E0
10.02E2	-31.288E0
10.023E2	-20.138E0
10.027E2	-16.725E0
10.031E2	-30.378E0
10.034E2	-36.75E0
10.038E2	4.2097E0
10.042E2	-8.3057E0
10.045E2	-18.09E0
10.049E2	-14.905E0
10.053E2	-18.545E0
10.056E2	-52.906E0
10.06E2	-46.534E0
10.064E2	-31.971E0
10.067E2	-29.013E0
10.071E2	-14.677E0
10.074E2	-16.725E0
10.078E2	-50.175E0
10.082E2	-36.522E0
10.085E2	-22.414E0
10.089E2	-16.953E0
10.093E2	-46.534E0
10.096E2	-22.641E0
10.10E2	-25.827E0
10.104E2	-32.881E0
10.107E2	-25.145E0
10.111E2	-16.498E0
10.115E2	-18.773E0
10.118E2	-27.192E0
10.122E2	-21.049E0
10.126E2	-41.301E0
10.129E2	-5.3475E0
10.133E2	-26.737E0
10.137E2	-35.157E0
10.14E2	-29.696E0
10.144E2	-35.612E0
10.148E2	-11.036E0
10.151E2	-56.319E0
10.155E2	-26.282E0
10.158E2	-24.917E0
10.162E2	-24.917E0
10.166E2	-44.259E0
10.169E2	-21.504E0
10.173E2	-49.037E0
10.177E2	-19.911E0
10.18E2	-24.007E0
10.184E2	-20.366E0
10.188E2	-24.689E0
10.191E2	-40.618E0
10.195E2	-35.612E0
10.199E2	-25.827E0
10.202E2	-23.097E0
10.206E2	-37.887E0
10.209E2	-41.983E0
10.213E2	-18.09E0
10.217E2	-26.282E0
10.22E2	-4.8924E0
10.224E2	-30.606E0
10.228E2	-18.318E0
10.231E2	-16.042E0
10.235E2	-26.055E0
10.238E2	-28.103E0
10.242E2	-29.24E0
10.246E2	-21.959E0
10.249E2	-32.426E0
10.253E2	-10.581E0
10.257E2	-39.025E0
10.26E2	-35.612E0
10.264E2	-26.055E0
10.267E2	-25.827E0
10.271E2	-20.821E0
10.275E2	-33.109E0
10.278E2	-24.234E0
10.282E2	-8.3057E0
10.286E2	-16.725E0
10.289E2	-31.061E0
10.293E2	-22.869E0
10.296E2	-31.288E0
10.30E2	-25.372E0
10.304E2	-38.57E0
10.307E2	-31.516E0
10.311E2	-13.312E0
10.315E2	-2.6168E0
10.318E2	-22.869E0
10.322E2	-24.689E0
10.325E2	-36.75E0
10.329E2	-30.151E0
10.333E2	-34.702E0
10.336E2	-31.516E0
10.34E2	-25.827E0
10.343E2	-16.725E0
10.347E2	-34.474E0
10.351E2	-33.564E0
10.354E2	-36.977E0
10.358E2	-29.696E0
10.362E2	-33.791E0
10.365E2	-35.839E0
10.369E2	-11.036E0
10.372E2	-35.157E0
10.376E2	-26.965E0
10.38E2	-23.324E0
