Data from JAZA26501_14-07-40-040.txt Node
Date: Sun Sep 29 14:07:40 ADT 2013
User: oceanview
Spectrometer:  JAZA2650
Trigger mode: 0
Integration Time (sec): 1.000000E-1
Scans to average: 10
Electric dark correction enabled: true
Nonlinearity correction enabled: false
Boxcar width: 0
XAxis mode: Wavelengths
Number of Pixels in Spectrum: 2048
>>>>>Begin Spectral Data<<<<<
1.897E2	-26.865E0
1.9015E2	-26.865E0
1.9061E2	-26.865E0
1.9106E2	-30.734E0
1.9151E2	-16.626E0
1.9197E2	-4.7928E0
1.9242E2	13.184E0
1.9288E2	9.0879E0
1.9333E2	-8.4336E0
1.9378E2	23.424E0
1.9424E2	8.6328E0
1.9469E2	12.956E0
1.9515E2	7.2674E0
1.956E2	25.472E0
1.9605E2	8.8603E0
1.9651E2	-12.985E0
1.9696E2	-7.9785E0
1.9742E2	-46.933E-2
1.9787E2	7.2674E0
1.9832E2	-9.799E0
1.9878E2	-12.53E0
1.9923E2	-2.5173E0
1.9968E2	-4.1102E0
2.0014E2	-6.8408E0
2.0059E2	-14.805E0
2.0104E2	-13.44E0
2.015E2	-9.3439E0
2.0195E2	-13.212E0
2.0241E2	-2.2897E0
2.0286E2	-1.8346E0
2.0331E2	-10.254E0
2.0377E2	-7.0683E0
2.0422E2	-20.949E0
2.0467E2	-4.1102E0
2.0513E2	-12.302E0
2.0558E2	-6.1581E0
2.0603E2	-17.081E0
2.0649E2	-19.811E0
2.0694E2	-34.147E0
2.0739E2	-16.853E0
2.0785E2	-31.416E0
2.083E2	-28.003E0
2.0875E2	-29.141E0
2.0921E2	-9.5714E0
2.0966E2	-28.231E0
2.1011E2	-25.273E0
2.1056E2	44.088E-2
2.1102E2	-11.619E0
2.1147E2	-28.458E0
2.1192E2	44.088E-2
2.1238E2	-5.4755E0
2.1283E2	4.7644E0
2.1328E2	66.843E-2
2.1374E2	-12.985E0
2.1419E2	-4.3377E0
2.1464E2	-7.2959E0
2.1509E2	-21.632E0
2.1555E2	-20.039E0
2.160E2	2.7164E0
2.1645E2	-35.74E0
2.169E2	-21.177E0
2.1736E2	-29.596E0
2.1781E2	-7.0683E0
2.1826E2	-38.926E0
2.1872E2	-12.074E0
2.1917E2	-46.662E0
2.1962E2	-23.68E0
2.2007E2	-28.458E0
2.2053E2	-15.715E0
2.2098E2	-20.949E0
2.2143E2	-26.638E0
2.2188E2	-24.362E0
2.2234E2	-6.1581E0
2.2279E2	-19.811E0
2.2324E2	-5.9306E0
2.2369E2	-11.164E0
2.2414E2	12.956E0
2.246E2	-28.913E0
2.2505E2	-29.824E0
2.255E2	-24.59E0
2.2595E2	-4.5653E0
2.2641E2	-5.2479E0
2.2686E2	-30.279E0
2.2731E2	-21.859E0
2.2776E2	-2.9724E0
2.2821E2	-4.7928E0
2.2867E2	-18.218E0
2.2912E2	-15.488E0
2.2957E2	-22.314E0
2.3002E2	-22.542E0
2.3047E2	-13.44E0
2.3093E2	-26.41E0
2.3138E2	-20.721E0
2.3183E2	-19.356E0
2.3228E2	-11.619E0
2.3273E2	-7.5234E0
2.3318E2	-2.7448E0
2.3364E2	-25.728E0
2.3409E2	-22.314E0
2.3454E2	-33.237E0
2.3499E2	-38.698E0
2.3544E2	-17.081E0
2.3589E2	-22.314E0
2.3635E2	-17.081E0
2.368E2	-29.368E0
2.3725E2	-23.907E0
2.377E2	-20.494E0
2.3815E2	-19.584E0
2.386E2	-40.291E0
2.3905E2	-38.926E0
2.3951E2	-21.859E0
2.3996E2	-25.50E0
2.4041E2	-20.266E0
2.4086E2	-23.907E0
2.4131E2	-11.164E0
2.4176E2	10.453E0
2.4221E2	-32.099E0
2.4266E2	-20.721E0
2.4312E2	2.4889E0
2.4357E2	-23.225E0
2.4402E2	-17.081E0
2.4447E2	-8.2061E0
2.4492E2	-18.218E0
2.4537E2	-11.847E0
2.4582E2	-3.4275E0
2.4627E2	-10.937E0
2.4672E2	-23.225E0
2.4717E2	-13.212E0
2.4763E2	-19.356E0
2.4808E2	-10.937E0
2.4853E2	-34.602E0
2.4898E2	-31.416E0
2.4943E2	-35.74E0
2.4988E2	-19.356E0
2.5033E2	-6.8408E0
2.5078E2	-9.3439E0
2.5123E2	-28.913E0
2.5168E2	-28.231E0
2.5213E2	-10.027E0
2.5258E2	-11.847E0
2.5303E2	-1.3795E0
2.5348E2	-92.443E-2
2.5393E2	-4.5653E0
2.5438E2	-10.027E0
2.5484E2	-3.8826E0
2.5529E2	-13.44E0
2.5574E2	-4.1102E0
2.5619E2	1.8062E0
2.5664E2	-2.7448E0
2.5709E2	-12.074E0
2.5754E2	-2.9724E0
2.5799E2	4.3093E0
2.5844E2	-6.8408E0
2.5889E2	-28.913E0
2.5934E2	-27.32E0
2.5979E2	-26.865E0
2.6024E2	-14.35E0
2.6069E2	-29.596E0
2.6114E2	-6.1581E0
2.6159E2	2.7164E0
2.6204E2	-15.488E0
2.6249E2	-19.811E0
2.6294E2	-23.907E0
2.6339E2	-26.865E0
2.6384E2	-20.266E0
2.6429E2	-7.5234E0
2.6474E2	-32.327E0
2.6519E2	-4.1102E0
2.6564E2	-10.027E0
2.6609E2	-25.955E0
2.6654E2	-18.901E0
2.6699E2	-23.907E0
2.6744E2	-6.1581E0
2.6789E2	-26.865E0
2.6833E2	-25.955E0
2.6878E2	-28.686E0
2.6923E2	44.088E-2
2.6968E2	-17.536E0
2.7013E2	-8.2061E0
2.7058E2	-15.488E0
2.7103E2	-2.0622E0
2.7148E2	-29.368E0
2.7193E2	3.1715E0
2.7238E2	-25.273E0
2.7283E2	-3.4275E0
2.7328E2	9.9981E0
2.7373E2	-11.392E0
2.7418E2	-13.667E0
2.7463E2	-21.177E0
2.7507E2	-18.901E0
2.7552E2	-29.141E0
2.7597E2	-24.817E0
2.7642E2	-34.147E0
2.7687E2	-29.824E0
2.7732E2	-10.027E0
2.7777E2	-28.686E0
2.7822E2	-16.853E0
2.7867E2	-26.183E0
2.7912E2	-10.709E0
2.7956E2	-30.734E0
2.8001E2	-21.632E0
2.8046E2	-8.4336E0
2.8091E2	-18.218E0
2.8136E2	-37.105E0
2.8181E2	-3.4275E0
2.8226E2	-19.584E0
2.8271E2	-17.081E0
2.8315E2	-6.3857E0
2.836E2	5.9021E0
2.8405E2	-18.901E0
2.845E2	11.591E0
2.8495E2	-22.542E0
2.854E2	-1.4222E-2
2.8585E2	-2.5173E0
2.8629E2	-92.443E-2
2.8674E2	-7.0683E0
2.8719E2	-20.039E0
2.8764E2	-18.446E0
2.8809E2	-8.4336E0
2.8854E2	-7.751E0
2.8898E2	-16.398E0
2.8943E2	-17.763E0
2.8988E2	-6.3857E0
2.9033E2	-20.494E0
2.9078E2	-14.805E0
2.9122E2	-14.122E0
2.9167E2	-14.578E0
2.9212E2	10.226E0
2.9257E2	-35.512E0
2.9302E2	44.088E-2
2.9346E2	-9.799E0
2.9391E2	-6.6132E0
2.9436E2	-20.039E0
2.9481E2	-35.512E0
2.9526E2	-14.35E0
2.957E2	3.6266E0
2.9615E2	-17.763E0
2.966E2	7.9501E0
2.9705E2	11.363E0
2.9749E2	-6.1581E0
2.9794E2	-30.734E0
2.9839E2	-7.9785E0
2.9884E2	-19.584E0
2.9928E2	-1.3795E0
2.9973E2	-25.50E0
3.0018E2	-8.4336E0
3.0063E2	-13.895E0
3.0107E2	-12.985E0
3.0152E2	-5.4755E0
3.0197E2	-28.231E0
3.0242E2	-10.482E0
3.0286E2	-19.811E0
3.0331E2	-7.2959E0
3.0376E2	6.8123E0
3.0421E2	-1.6071E0
3.0465E2	2.0337E0
3.051E2	-2.7448E0
3.0555E2	-16.853E0
3.0599E2	-17.991E0
3.0644E2	-30.734E0
3.0689E2	-8.8888E0
3.0734E2	-25.045E0
3.0778E2	-8.4336E0
3.0823E2	-22.542E0
3.0868E2	-28.913E0
3.0912E2	-24.177E-2
3.0957E2	-8.2061E0
3.1002E2	-5.4755E0
3.1046E2	21.333E-2
3.1091E2	-14.35E0
3.1136E2	1.8062E0
3.118E2	-7.2959E0
3.1225E2	-1.6071E0
3.127E2	-1.6071E0
3.1314E2	-10.709E0
3.1359E2	-20.039E0
3.1404E2	-46.933E-2
3.1448E2	-22.314E0
3.1493E2	-26.865E0
3.1538E2	-18.673E0
3.1582E2	29.112E0
3.1627E2	-18.673E0
3.1672E2	-69.688E-2
3.1716E2	-18.218E0
3.1761E2	-21.177E0
3.1805E2	-24.135E0
3.185E2	2.944E0
3.1895E2	-13.667E0
3.1939E2	-12.985E0
3.1984E2	-19.129E0
3.2029E2	-20.039E0
3.2073E2	-24.59E0
3.2118E2	-1.6071E0
3.2162E2	-7.751E0
3.2207E2	-8.6612E0
3.2252E2	-2.0622E0
3.2296E2	-22.769E0
3.2341E2	-14.805E0
3.2385E2	-18.446E0
3.243E2	-20.494E0
3.2474E2	-7.0683E0
3.2519E2	-19.129E0
3.2564E2	-3.4275E0
3.2608E2	-8.8888E0
3.2653E2	-24.362E0
3.2697E2	-4.5653E0
3.2742E2	-20.494E0
3.2786E2	-1.3795E0
3.2831E2	-16.17E0
3.2876E2	1.3511E0
3.292E2	-7.0683E0
3.2965E2	-26.41E0
3.3009E2	-22.769E0
3.3054E2	8.8603E0
3.3098E2	4.3093E0
3.3143E2	4.7644E0
3.3187E2	-14.122E0
3.3232E2	-7.751E0
3.3276E2	-19.811E0
3.3321E2	-17.991E0
3.3365E2	8.6328E0
3.341E2	-10.482E0
3.3454E2	-69.688E-2
3.3499E2	21.333E-2
3.3543E2	-5.4755E0
3.3588E2	-1.3795E0
3.3632E2	-15.26E0
3.3677E2	-6.1581E0
3.3721E2	15.914E0
3.3766E2	-18.673E0
3.381E2	-15.488E0
3.3855E2	16.597E0
3.3899E2	-3.4275E0
3.3944E2	-18.673E0
3.3988E2	-12.757E0
3.4033E2	-7.751E0
3.4077E2	2.7164E0
3.4122E2	-2.0622E0
3.4166E2	-10.027E0
3.4211E2	3.3991E0
3.4255E2	66.843E-2
3.430E2	-10.937E0
3.4344E2	-9.5714E0
3.4388E2	-8.8888E0
3.4433E2	-7.5234E0
3.4477E2	12.274E0
3.4522E2	-18.673E0
3.4566E2	-16.853E0
3.4611E2	11.591E0
3.4655E2	-5.9306E0
3.470E2	-7.751E0
3.4744E2	-1.8346E0
3.4788E2	4.9919E0
3.4833E2	-10.482E0
3.4877E2	4.0817E0
3.4922E2	9.3154E0
3.4966E2	-4.1102E0
3.501E2	-4.3377E0
3.5055E2	2.2613E0
3.5099E2	-5.703E0
3.5144E2	-5.4755E0
3.5188E2	-25.273E0
3.5232E2	66.843E-2
3.5277E2	-1.8346E0
3.5321E2	-46.933E-2
3.5365E2	-3.6551E0
3.541E2	-21.404E0
3.5454E2	16.597E0
3.5499E2	-24.177E-2
3.5543E2	1.5786E0
3.5587E2	8.1777E0
3.5632E2	14.549E0
3.5676E2	-3.4275E0
3.572E2	3.6266E0
3.5765E2	-1.152E0
3.5809E2	-12.757E0
3.5853E2	4.3093E0
3.5898E2	10.908E0
3.5942E2	-8.8888E0
3.5986E2	-9.1163E0
3.6031E2	2.7164E0
3.6075E2	4.7644E0
3.6119E2	25.927E0
3.6164E2	9.0879E0
3.6208E2	5.447E0
3.6252E2	-18.218E0
3.6297E2	9.7705E0
3.6341E2	-17.081E0
3.6385E2	-5.0204E0
3.6429E2	2.0337E0
3.6474E2	-10.482E0
3.6518E2	-13.895E0
3.6562E2	-30.961E0
3.6607E2	-16.626E0
3.6651E2	-15.033E0
3.6695E2	-10.027E0
3.6739E2	19.555E0
3.6784E2	24.106E0
3.6828E2	15.004E0
3.6872E2	-7.5234E0
3.6916E2	-10.254E0
3.6961E2	-2.2897E0
3.7005E2	-6.3857E0
3.7049E2	13.866E0
3.7093E2	20.01E0
3.7138E2	7.2674E0
3.7182E2	8.4052E0
3.7226E2	2.944E0
3.727E2	-5.4755E0
3.7315E2	7.2674E0
3.7359E2	5.6746E0
3.7403E2	-6.3857E0
3.7447E2	5.2195E0
3.7492E2	20.238E0
3.7536E2	7.2674E0
3.758E2	10.908E0
3.7624E2	89.599E-2
3.7668E2	-92.443E-2
3.7713E2	-11.619E0
3.7757E2	21.376E0
3.7801E2	7.0399E0
3.7845E2	13.411E0
3.7889E2	15.687E0
3.7934E2	29.34E0
3.7978E2	16.597E0
3.8022E2	11.591E0
3.8066E2	14.094E0
3.811E2	35.939E0
3.8154E2	7.495E0
3.8199E2	32.526E0
3.8243E2	-1.152E0
3.8287E2	-2.9724E0
3.8331E2	6.5848E0
3.8375E2	16.37E0
3.8419E2	66.843E-2
3.8463E2	12.274E0
3.8508E2	26.154E0
3.8552E2	-9.1163E0
3.8596E2	7.2674E0
3.864E2	24.106E0
3.8684E2	10.681E0
3.8728E2	4.7644E0
3.8772E2	9.0879E0
3.8816E2	33.891E0
3.8861E2	28.43E0
3.8905E2	15.914E0
3.8949E2	-3.8826E0
3.8993E2	-3.6551E0
3.9037E2	-46.933E-2
3.9081E2	12.046E0
3.9125E2	26.382E0
3.9169E2	32.071E0
3.9213E2	18.417E0
3.9257E2	45.269E0
3.9301E2	4.7644E0
3.9346E2	32.071E0
3.939E2	35.711E0
3.9434E2	32.981E0
3.9478E2	48.454E0
3.9522E2	38.67E0
3.9566E2	46.179E0
3.961E2	44.358E0
3.9654E2	28.43E0
3.9698E2	63.70E0
3.9742E2	45.496E0
3.9786E2	35.939E0
3.983E2	39.125E0
3.9874E2	35.256E0
3.9918E2	49.592E0
3.9962E2	53.233E0
4.0006E2	35.711E0
4.005E2	32.298E0
4.0094E2	37.532E0
4.0138E2	39.807E0
4.0182E2	42.538E0
4.0226E2	30.705E0
4.027E2	53.461E0
4.0314E2	42.538E0
4.0358E2	24.789E0
4.0402E2	55.508E0
4.0446E2	51.868E0
4.049E2	46.179E0
4.0534E2	73.485E0
4.0578E2	50.73E0
4.0622E2	60.515E0
4.0666E2	57.556E0
4.071E2	70.299E0
4.0754E2	48.454E0
4.0798E2	81.449E0
4.0842E2	51.413E0
4.0886E2	67.114E0
4.093E2	79.629E0
4.0974E2	69.389E0
4.1018E2	82.36E0
4.1062E2	58.239E0
4.1106E2	57.784E0
4.115E2	67.341E0
4.1194E2	75.988E0
4.1237E2	61.88E0
4.1281E2	58.922E0
4.1325E2	74.623E0
4.1369E2	60.06E0
4.1413E2	75.078E0
4.1457E2	1.0967E2
4.1501E2	82.587E0
4.1545E2	68.251E0
4.1589E2	93.51E0
4.1633E2	1.0739E2
4.1676E2	84.863E0
4.172E2	1.2104E2
4.1764E2	1.2195E2
4.1808E2	1.0807E2
4.1852E2	1.1422E2
4.1896E2	1.0989E2
4.194E2	1.4312E2
4.1984E2	1.4494E2
4.2027E2	1.6382E2
4.2071E2	1.3515E2
4.2115E2	1.4721E2
4.2159E2	1.6792E2
4.2203E2	1.8817E2
4.2247E2	1.4903E2
4.2291E2	1.859E2
4.2334E2	2.1002E2
4.2378E2	2.0729E2
4.2422E2	2.0182E2
4.2466E2	2.1662E2
4.251E2	2.3414E2
4.2554E2	2.6668E2
4.2597E2	2.5985E2
4.2641E2	2.7828E2
4.2685E2	2.9102E2
4.2729E2	3.0013E2
4.2773E2	3.2243E2
4.2816E2	3.2789E2
4.286E2	3.5793E2
4.2904E2	4.0321E2
4.2948E2	4.2369E2
4.2991E2	4.5463E2
4.3035E2	4.585E2
4.3079E2	5.1903E2
4.3123E2	5.3655E2
4.3167E2	5.5976E2
4.321E2	6.0186E2
4.3254E2	6.2211E2
4.3298E2	6.8378E2
4.3342E2	7.277E2
4.3385E2	7.8026E2
4.3429E2	7.8595E2
4.3473E2	8.5331E2
4.3517E2	9.2385E2
4.356E2	9.6481E2
4.3604E2	10.39E2
4.3648E2	11.216E2
4.3692E2	11.958E2
4.3735E2	12.627E2
4.3779E2	13.45E2
4.3823E2	14.183E2
4.3866E2	14.975E2
4.391E2	15.815E2
4.3954E2	16.456E2
4.3997E2	18.113E2
4.4041E2	19.31E2
4.4085E2	20.368E2
4.4129E2	21.822E2
4.4172E2	22.675E2
4.4216E2	24.139E2
4.426E2	25.508E2
4.4303E2	26.694E2
4.4347E2	28.59E2
4.4391E2	31.074E2
4.4434E2	32.128E2
4.4478E2	34.283E2
4.4522E2	36.973E2
4.4565E2	38.631E2
4.4609E2	40.124E2
4.4653E2	42.823E2
4.4696E2	45.736E2
4.474E2	49.224E2
4.4783E2	52.546E2
4.4827E2	54.571E2
4.4871E2	59.184E2
4.4914E2	62.634E2
4.4958E2	66.591E2
4.5002E2	70.316E2
4.5045E2	75.174E2
4.5089E2	81.748E2
4.5132E2	87.776E2
4.5176E2	94.864E2
4.522E2	1.0153E4
4.5263E2	1.0865E4
4.5307E2	1.1707E4
4.535E2	1.2469E4
4.5394E2	1.3375E4
4.5437E2	1.430E4
4.5481E2	1.5573E4
4.5525E2	1.6855E4
4.5568E2	1.797E4
4.5612E2	1.9366E4
4.5655E2	2.0832E4
4.5699E2	2.2545E4
4.5742E2	2.3944E4
4.5786E2	2.6111E4
4.5829E2	2.7587E4
4.5873E2	2.9864E4
4.5917E2	3.1582E4
4.596E2	3.3495E4
4.6004E2	3.569E4
4.6047E2	3.8276E4
4.6091E2	4.0406E4
4.6134E2	4.2236E4
4.6178E2	4.5178E4
4.6221E2	4.6887E4
4.6265E2	4.8487E4
4.6308E2	5.0168E4
4.6352E2	5.1849E4
4.6395E2	5.2796E4
4.6439E2	5.441E4
4.6482E2	5.5365E4
4.6526E2	5.6415E4
4.6569E2	5.6718E4
4.6613E2	5.7546E4
4.6656E2	5.8073E4
4.670E2	5.8599E4
4.6743E2	5.9043E4
4.6787E2	5.9473E4
4.683E2	5.9736E4
4.6873E2	5.9745E4
4.6917E2	5.9846E4
4.696E2	5.9695E4
4.7004E2	5.9347E4
4.7047E2	5.8789E4
4.7091E2	5.8759E4
4.7134E2	5.8434E4
4.7177E2	5.8188E4
4.7221E2	5.7404E4
4.7264E2	5.6729E4
4.7308E2	5.5774E4
4.7351E2	5.5131E4
4.7395E2	5.4668E4
4.7438E2	5.3908E4
4.7481E2	5.269E4
4.7525E2	5.1771E4
4.7568E2	5.0991E4
4.7612E2	4.969E4
4.7655E2	4.8538E4
4.7698E2	4.7226E4
4.7742E2	4.5507E4
4.7785E2	4.4169E4
4.7828E2	4.2507E4
4.7872E2	4.1285E4
4.7915E2	4.0075E4
4.7959E2	3.9053E4
4.8002E2	3.798E4
4.8045E2	3.6726E4
4.8089E2	3.5958E4
4.8132E2	3.4671E4
4.8175E2	3.3735E4
4.8219E2	3.330E4
4.8262E2	3.2321E4
4.8305E2	3.1398E4
4.8349E2	3.0631E4
4.8392E2	2.9573E4
4.8435E2	2.8668E4
4.8479E2	2.7655E4
4.8522E2	2.6699E4
4.8565E2	2.5859E4
4.8608E2	2.488E4
4.8652E2	2.4394E4
4.8695E2	2.3844E4
4.8738E2	2.300E4
4.8782E2	2.2058E4
4.8825E2	2.1153E4
4.8868E2	2.0628E4
4.8911E2	1.9811E4
4.8955E2	1.9343E4
4.8998E2	1.8803E4
4.9041E2	1.784E4
4.9084E2	1.7247E4
4.9128E2	1.6817E4
4.9171E2	1.6197E4
4.9214E2	1.5453E4
4.9257E2	1.4707E4
4.9301E2	1.4084E4
4.9344E2	1.353E4
4.9387E2	1.2915E4
4.943E2	1.2575E4
4.9474E2	1.2095E4
4.9517E2	1.1642E4
4.956E2	1.1294E4
4.9603E2	1.0717E4
4.9647E2	1.0444E4
4.969E2	1.0126E4
4.9733E2	96.088E2
4.9776E2	92.659E2
4.9819E2	89.298E2
4.9862E2	86.172E2
4.9906E2	81.971E2
4.9949E2	79.705E2
4.9992E2	77.647E2
5.0035E2	74.796E2
5.0078E2	72.261E2
5.0122E2	69.749E2
5.0165E2	66.962E2
5.0208E2	64.233E2
5.0251E2	62.665E2
5.0294E2	60.627E2
5.0337E2	58.699E2
5.038E2	56.704E2
5.0424E2	53.566E2
5.0467E2	52.373E2
5.051E2	50.571E2
5.0553E2	49.477E2
5.0596E2	47.101E2
5.0639E2	46.127E2
5.0682E2	43.36E2
5.0725E2	42.589E2
5.0769E2	41.185E2
5.0812E2	39.303E2
5.0855E2	38.012E2
5.0898E2	36.804E2
5.0941E2	35.673E2
5.0984E2	33.785E2
5.1027E2	32.258E2
5.107E2	31.002E2
5.1113E2	29.604E2
5.1156E2	28.76E2
5.1199E2	28.023E2
5.1242E2	27.038E2
5.1285E2	25.854E2
5.1329E2	25.52E2
5.1372E2	24.432E2
5.1415E2	23.577E2
5.1458E2	22.40E2
5.1501E2	21.884E2
5.1544E2	21.435E2
5.1587E2	20.994E2
5.163E2	19.854E2
5.1673E2	19.33E2
5.1716E2	18.236E2
5.1759E2	17.667E2
5.1802E2	17.54E2
5.1845E2	17.059E2
5.1888E2	16.375E2
5.1931E2	16.063E2
5.1974E2	15.653E2
5.2017E2	15.146E2
5.206E2	14.254E2
5.2103E2	14.156E2
5.2146E2	13.869E2
5.2189E2	13.407E2
5.2232E2	13.284E2
5.2275E2	12.863E2
5.2318E2	12.52E2
5.2361E2	12.213E2
5.2404E2	12.163E2
5.2447E2	11.869E2
5.2489E2	11.682E2
5.2532E2	11.091E2
5.2575E2	10.975E2
5.2618E2	10.604E2
5.2661E2	10.563E2
5.2704E2	10.44E2
5.2747E2	10.144E2
5.279E2	10.196E2
5.2833E2	9.623E2
5.2876E2	9.7778E2
5.2919E2	9.4433E2
5.2962E2	9.1884E2
5.3004E2	9.2772E2
5.3047E2	9.0792E2
5.309E2	8.4398E2
5.3133E2	8.7743E2
5.3176E2	8.376E2
5.3219E2	8.4671E2
5.3262E2	8.2122E2
5.3305E2	7.8345E2
5.3348E2	7.9278E2
5.339E2	7.7639E2
5.3433E2	7.4567E2
5.3476E2	7.4977E2
5.3519E2	7.5273E2
5.3562E2	7.4431E2
5.3605E2	7.3794E2
5.3647E2	7.409E2
5.369E2	7.1882E2
5.3733E2	7.038E2
5.3776E2	6.8992E2
5.3819E2	6.9812E2
5.3862E2	6.8788E2
5.3904E2	6.8355E2
5.3947E2	7.038E2
5.399E2	6.5807E2
5.4033E2	6.7604E2
5.4076E2	6.3918E2
5.4118E2	6.451E2
5.4161E2	6.4896E2
5.4204E2	6.542E2
5.4247E2	6.2302E2
5.4289E2	6.0391E2
5.4332E2	6.5056E2
5.4375E2	6.3577E2
5.4418E2	6.0778E2
5.4461E2	6.080E2
5.4503E2	6.2098E2
5.4546E2	6.0391E2
5.4589E2	6.435E2
5.4632E2	6.0892E2
5.4674E2	6.0391E2
5.4717E2	5.8866E2
5.476E2	5.8707E2
5.4802E2	5.8229E2
5.4845E2	5.8343E2
5.4888E2	5.8252E2
5.4931E2	6.0186E2
5.4973E2	5.7592E2
5.5016E2	5.6545E2
5.5059E2	5.4725E2
5.5101E2	5.741E2
5.5144E2	5.7478E2
5.5187E2	5.7296E2
5.5229E2	5.8275E2
5.5272E2	5.7592E2
5.5315E2	5.6705E2
5.5357E2	5.9026E2
5.540E2	5.7364E2
5.5443E2	5.7638E2
5.5485E2	5.7865E2
5.5528E2	5.8093E2
5.5571E2	5.6523E2
5.5613E2	5.7137E2
5.5656E2	5.5681E2
5.5699E2	5.609E2
5.5741E2	5.6386E2
5.5784E2	5.5863E2
5.5827E2	5.2609E2
5.5869E2	5.5612E2
5.5912E2	5.493E2
5.5954E2	5.3815E2
5.5997E2	5.2176E2
5.604E2	5.4156E2
5.6082E2	5.2609E2
5.6125E2	5.2404E2
5.6167E2	5.3132E2
5.621E2	5.336E2
5.6253E2	5.270E2
5.6295E2	4.981E2
5.6338E2	5.0037E2
5.638E2	5.0629E2
5.6423E2	4.940E2
5.6465E2	4.9309E2
5.6508E2	4.9127E2
5.6551E2	5.1858E2
5.6593E2	4.9286E2
5.6636E2	4.7898E2
5.6678E2	4.8376E2
5.6721E2	5.1289E2
5.6763E2	5.0856E2
5.6806E2	5.0993E2
5.6848E2	5.0447E2
5.6891E2	4.9127E2
5.6933E2	5.0106E2
5.6976E2	4.849E2
5.7018E2	5.2222E2
5.7061E2	4.7102E2
5.7103E2	4.9241E2
5.7146E2	5.0174E2
5.7188E2	4.8991E2
5.7231E2	4.6578E2
5.7273E2	4.7375E2
5.7316E2	4.9696E2
5.7358E2	4.7785E2
5.7401E2	4.9059E2
5.7443E2	4.9218E2
5.7486E2	4.8649E2
5.7528E2	4.8444E2
5.7571E2	4.8285E2
5.7613E2	4.7989E2
5.7655E2	5.1357E2
5.7698E2	5.2245E2
5.774E2	5.0674E2
5.7783E2	4.8376E2
5.7825E2	4.915E2
5.7868E2	4.7125E2
5.791E2	4.8626E2
5.7952E2	4.8922E2
5.7995E2	5.1403E2
5.8037E2	4.8877E2
5.808E2	4.7557E2
5.8122E2	4.9377E2
5.8164E2	4.965E2
5.8207E2	4.7557E2
5.8249E2	4.7602E2
5.8291E2	4.7147E2
5.8334E2	4.758E2
5.8376E2	4.6943E2
5.8419E2	4.5919E2
5.8461E2	4.808E2
5.8503E2	4.6146E2
5.8546E2	4.7921E2
5.8588E2	4.7489E2
5.863E2	4.7511E2
5.8673E2	4.7307E2
5.8715E2	4.7967E2
5.8757E2	4.4963E2
5.880E2	4.6101E2
5.8842E2	4.6556E2
5.8884E2	4.4348E2
5.8927E2	4.6874E2
5.8969E2	4.5805E2
5.9011E2	4.4189E2
5.9054E2	4.717E2
5.9096E2	4.5236E2
5.9138E2	4.4144E2
5.918E2	4.6601E2
5.9223E2	4.4417E2
5.9265E2	4.3825E2
5.9307E2	4.4485E2
5.9349E2	4.428E2
5.9392E2	4.6738E2
5.9434E2	4.5964E2
5.9476E2	4.6032E2
5.9519E2	4.5099E2
5.9561E2	4.5281E2
5.9603E2	4.4895E2
5.9645E2	4.3939E2
5.9687E2	4.3689E2
5.973E2	4.4735E2
5.9772E2	4.3598E2
5.9814E2	4.4462E2
5.9856E2	4.6328E2
5.9899E2	4.585E2
5.9941E2	4.3984E2
5.9983E2	4.5008E2
6.0025E2	4.3302E2
6.0067E2	4.5281E2
6.011E2	4.4849E2
6.0152E2	4.1049E2
6.0194E2	4.1504E2
6.0236E2	4.2141E2
6.0278E2	4.2983E2
6.032E2	4.312E2
6.0363E2	4.4576E2
6.0405E2	4.2665E2
6.0447E2	4.6078E2
6.0489E2	4.1003E2
6.0531E2	4.2027E2
6.0573E2	4.4075E2
6.0615E2	4.3984E2
6.0658E2	4.3689E2
6.070E2	4.4872E2
6.0742E2	4.0344E2
6.0784E2	4.0503E2
6.0826E2	3.9797E2
6.0868E2	3.7135E2
6.091E2	4.0002E2
6.0952E2	3.8091E2
6.0995E2	3.7067E2
6.1037E2	3.5019E2
6.1079E2	4.0025E2
6.1121E2	3.5497E2
6.1163E2	3.5292E2
6.1205E2	3.4268E2
6.1247E2	3.5133E2
6.1289E2	3.3631E2
6.1331E2	3.2675E2
6.1373E2	3.866E2
6.1415E2	3.5178E2
6.1457E2	3.4131E2
6.1499E2	3.5861E2
6.1541E2	3.4336E2
6.1583E2	3.3949E2
6.1625E2	3.2311E2
6.1667E2	3.2379E2
6.1709E2	3.3312E2
6.1751E2	3.2197E2
6.1794E2	3.1446E2
6.1836E2	3.0263E2
6.1878E2	3.0559E2
6.192E2	2.8443E2
6.1962E2	3.1583E2
6.2003E2	2.8829E2
6.2045E2	2.8397E2
6.2087E2	2.6577E2
6.2129E2	2.8693E2
6.2171E2	2.8283E2
6.2213E2	2.5416E2
6.2255E2	2.7009E2
6.2297E2	2.7373E2
6.2339E2	2.6827E2
6.2381E2	2.7055E2
6.2423E2	2.7168E2
6.2465E2	2.7942E2
6.2507E2	2.6326E2
6.2549E2	2.7191E2
6.2591E2	2.4096E2
6.2633E2	2.3664E2
6.2675E2	2.5098E2
6.2717E2	2.5029E2
6.2759E2	2.3368E2
6.280E2	2.3778E2
6.2842E2	2.1935E2
6.2884E2	2.2594E2
6.2926E2	2.0706E2
6.2968E2	2.2981E2
6.301E2	2.2663E2
6.3052E2	2.3209E2
6.3094E2	2.173E2
6.3135E2	2.3209E2
6.3177E2	2.3596E2
6.3219E2	2.1866E2
6.3261E2	2.1616E2
6.3303E2	2.1616E2
6.3345E2	2.2663E2
6.3387E2	2.0592E2
6.3428E2	2.1434E2
6.347E2	1.9136E2
6.3512E2	2.1093E2
6.3554E2	1.9978E2
6.3596E2	1.8794E2
6.3638E2	2.132E2
6.3679E2	2.0638E2
6.3721E2	2.0638E2
6.3763E2	2.1821E2
6.3805E2	1.8794E2
6.3847E2	1.8703E2
6.3888E2	1.9386E2
6.393E2	1.8908E2
6.3972E2	1.6155E2
6.4014E2	1.6496E2
6.4055E2	1.661E2
6.4097E2	1.7315E2
6.4139E2	1.7816E2
6.4181E2	1.7224E2
6.4222E2	1.6519E2
6.4264E2	1.6928E2
6.4306E2	1.7406E2
6.4348E2	1.7588E2
6.4389E2	1.3288E2
6.4431E2	1.5427E2
6.4473E2	1.4949E2
6.4515E2	1.4972E2
6.4556E2	1.5222E2
6.4598E2	1.5131E2
6.464E2	1.463E2
6.4681E2	1.3697E2
6.4723E2	1.488E2
6.4765E2	1.463E2
6.4806E2	1.4562E2
6.4848E2	1.3037E2
6.489E2	1.3037E2
6.4931E2	1.2605E2
6.4973E2	1.2332E2
6.5015E2	1.1922E2
6.5056E2	1.3219E2
6.5098E2	1.0967E2
6.514E2	1.124E2
6.5181E2	97.606E0
6.5223E2	1.1126E2
6.5265E2	1.1103E2
6.5306E2	1.1558E2
6.5348E2	1.4039E2
6.5389E2	1.1285E2
6.5431E2	1.240E2
6.5473E2	1.1877E2
6.5514E2	1.0193E2
6.5556E2	1.0716E2
6.5597E2	1.1194E2
6.5639E2	89.641E0
6.5681E2	96.013E0
6.5722E2	1.2013E2
6.5764E2	1.0307E2
6.5805E2	93.282E0
6.5847E2	72.347E0
6.5889E2	87.821E0
6.593E2	93.737E0
6.5972E2	1.0671E2
6.6013E2	57.101E0
6.6055E2	65.521E0
6.6096E2	80.539E0
6.6138E2	75.078E0
6.6179E2	78.036E0
6.6221E2	71.437E0
6.6262E2	68.934E0
6.6304E2	53.688E0
6.6345E2	65.521E0
6.6387E2	68.707E0
6.6428E2	77.126E0
6.647E2	67.569E0
6.6511E2	57.784E0
6.6553E2	51.413E0
6.6594E2	58.239E0
6.6636E2	38.897E0
6.6677E2	71.437E0
6.6719E2	58.012E0
6.676E2	47.772E0
6.6802E2	64.383E0
6.6843E2	73.713E0
6.6885E2	41.40E0
6.6926E2	42.083E0
6.6967E2	56.419E0
6.7009E2	60.06E0
6.705E2	54.143E0
6.7092E2	41.628E0
6.7133E2	58.012E0
6.7175E2	46.634E0
6.7216E2	60.287E0
6.7257E2	48.227E0
6.7299E2	57.329E0
6.734E2	32.298E0
6.7382E2	45.951E0
6.7423E2	15.687E0
6.7464E2	35.256E0
6.7506E2	16.825E0
6.7547E2	42.766E0
6.7588E2	50.957E0
6.763E2	21.831E0
6.7671E2	39.125E0
6.7713E2	40.262E0
6.7754E2	36.167E0
6.7795E2	32.071E0
6.7837E2	19.10E0
6.7878E2	7.2674E0
6.7919E2	45.724E0
6.7961E2	44.131E0
6.8002E2	35.029E0
6.8043E2	19.555E0
6.8085E2	46.862E0
6.8126E2	15.459E0
6.8167E2	35.256E0
6.8208E2	34.119E0
6.825E2	35.939E0
6.8291E2	33.208E0
6.8332E2	41.173E0
6.8374E2	30.25E0
6.8415E2	10.453E0
6.8456E2	17.962E0
6.8497E2	33.663E0
6.8539E2	32.981E0
6.858E2	3.3991E0
6.8621E2	16.597E0
6.8662E2	19.328E0
6.8704E2	20.921E0
6.8745E2	20.921E0
6.8786E2	-1.4222E-2
6.8827E2	22.286E0
6.8869E2	-24.177E-2
6.891E2	10.681E0
6.8951E2	14.322E0
6.8992E2	8.6328E0
6.9033E2	22.058E0
6.9075E2	23.651E0
6.9116E2	-12.53E0
6.9157E2	14.777E0
6.9198E2	9.543E0
6.9239E2	21.603E0
6.928E2	35.939E0
6.9322E2	18.645E0
6.9363E2	10.453E0
6.9404E2	7.495E0
6.9445E2	2.0337E0
6.9486E2	-11.847E0
6.9527E2	11.591E0
6.9568E2	-10.482E0
6.961E2	7.7225E0
6.9651E2	2.2613E0
6.9692E2	5.2195E0
6.9733E2	1.1235E0
6.9774E2	9.7705E0
6.9815E2	-17.308E0
6.9856E2	-10.937E0
6.9897E2	15.687E0
6.9939E2	11.363E0
6.998E2	22.286E0
7.0021E2	14.549E0
7.0062E2	89.599E-2
7.0103E2	-1.6071E0
7.0144E2	-1.4222E-2
7.0185E2	24.106E0
7.0226E2	-16.626E0
7.0267E2	-14.122E0
7.0308E2	19.328E0
7.0349E2	4.9919E0
7.039E2	18.417E0
7.0431E2	44.088E-2
7.0472E2	-1.8346E0
7.0513E2	-6.3857E0
7.0554E2	-22.997E0
7.0595E2	-8.4336E0
7.0636E2	9.0879E0
7.0677E2	-5.0204E0
7.0718E2	1.5786E0
7.0759E2	-8.2061E0
7.080E2	-1.152E0
7.0841E2	-9.1163E0
7.0882E2	7.0399E0
7.0923E2	16.825E0
7.0964E2	4.3093E0
7.1005E2	6.5848E0
7.1046E2	-5.2479E0
7.1087E2	9.0879E0
7.1128E2	-5.4755E0
7.1169E2	-11.164E0
7.121E2	-6.3857E0
7.1251E2	-3.200E0
7.1292E2	-8.6612E0
7.1333E2	-6.8408E0
7.1374E2	-30.051E0
7.1415E2	-22.769E0
7.1455E2	3.1715E0
7.1496E2	-11.392E0
7.1537E2	-10.482E0
7.1578E2	21.333E-2
7.1619E2	66.843E-2
7.166E2	-5.2479E0
7.1701E2	-31.416E0
7.1742E2	-13.667E0
7.1783E2	-33.009E0
7.1823E2	-19.811E0
7.1864E2	11.363E0
7.1905E2	-12.302E0
7.1946E2	-12.985E0
7.1987E2	-4.5653E0
7.2028E2	-15.26E0
7.2069E2	1.8062E0
7.2109E2	-18.218E0
7.215E2	-18.218E0
7.2191E2	44.088E-2
7.2232E2	-4.5653E0
7.2273E2	-16.17E0
7.2313E2	-6.3857E0
7.2354E2	-6.3857E0
7.2395E2	7.9501E0
7.2436E2	-3.200E0
7.2477E2	-16.853E0
7.2517E2	-16.398E0
7.2558E2	-9.1163E0
7.2599E2	-30.734E0
7.264E2	-22.087E0
7.268E2	-26.183E0
7.2721E2	-22.769E0
7.2762E2	-12.074E0
7.2803E2	-10.482E0
7.2843E2	-69.688E-2
7.2884E2	13.639E0
7.2925E2	2.7164E0
7.2966E2	-11.847E0
7.3006E2	6.5848E0
7.3047E2	3.3991E0
7.3088E2	-10.482E0
7.3129E2	21.333E-2
7.3169E2	-23.452E0
7.321E2	4.7644E0
7.3251E2	-37.333E0
7.3291E2	-21.404E0
7.3332E2	-22.769E0
7.3373E2	-22.997E0
7.3413E2	-35.512E0
7.3454E2	-12.074E0
7.3495E2	-11.619E0
7.3535E2	-3.8826E0
7.3576E2	-5.2479E0
7.3617E2	-17.536E0
7.3657E2	-17.081E0
7.3698E2	-7.751E0
7.3738E2	-24.817E0
7.3779E2	-22.314E0
7.382E2	-17.991E0
7.386E2	-20.494E0
7.3901E2	-4.3377E0
7.3942E2	21.333E-2
7.3982E2	-2.7448E0
7.4023E2	-7.751E0
7.4063E2	-2.7448E0
7.4104E2	-26.865E0
7.4145E2	-15.033E0
7.4185E2	-11.392E0
7.4226E2	-14.805E0
7.4266E2	-24.59E0
7.4307E2	-32.327E0
7.4347E2	-25.50E0
7.4388E2	-17.081E0
7.4428E2	-17.308E0
7.4469E2	-14.805E0
7.4509E2	-2.5173E0
7.455E2	-6.8408E0
7.4591E2	2.944E0
7.4631E2	-11.164E0
7.4672E2	1.5786E0
7.4712E2	-1.152E0
7.4753E2	-30.734E0
7.4793E2	-26.183E0
7.4834E2	-22.542E0
7.4874E2	-22.997E0
7.4915E2	-29.824E0
7.4955E2	-29.141E0
7.4995E2	-18.673E0
7.5036E2	-23.68E0
7.5076E2	-18.218E0
7.5117E2	-15.715E0
7.5157E2	-2.9724E0
7.5198E2	-24.817E0
7.5238E2	-33.009E0
7.5279E2	-29.824E0
7.5319E2	-12.302E0
7.5359E2	-24.135E0
7.540E2	-34.602E0
7.544E2	-19.356E0
7.5481E2	-26.638E0
7.5521E2	-32.554E0
7.5562E2	-23.68E0
7.5602E2	-19.129E0
7.5642E2	-10.937E0
7.5683E2	-14.122E0
7.5723E2	-21.632E0
7.5763E2	-17.536E0
7.5804E2	-20.494E0
7.5844E2	-2.7448E0
7.5885E2	-8.2061E0
7.5925E2	-18.446E0
7.5965E2	-22.314E0
7.6006E2	-19.356E0
7.6046E2	-18.218E0
7.6086E2	-9.3439E0
7.6127E2	-6.3857E0
7.6167E2	4.3093E0
7.6207E2	-40.518E0
7.6248E2	-34.602E0
7.6288E2	-16.398E0
7.6328E2	-34.375E0
7.6368E2	-21.177E0
7.6409E2	-23.907E0
7.6449E2	-12.757E0
7.6489E2	-22.314E0
7.653E2	-10.937E0
7.657E2	-24.817E0
7.661E2	-5.0204E0
7.665E2	-16.853E0
7.6691E2	-5.9306E0
7.6731E2	-13.212E0
7.6771E2	-32.327E0
7.6811E2	-5.0204E0
7.6852E2	-11.847E0
7.6892E2	-10.709E0
7.6932E2	-10.027E0
7.6972E2	-7.5234E0
7.7012E2	-30.506E0
7.7053E2	-15.943E0
7.7093E2	-6.1581E0
7.7133E2	-9.799E0
7.7173E2	-35.967E0
7.7213E2	-28.231E0
7.7254E2	-24.362E0
7.7294E2	-21.632E0
7.7334E2	-17.991E0
7.7374E2	-19.129E0
7.7414E2	-17.081E0
7.7454E2	-16.626E0
7.7495E2	-31.189E0
7.7535E2	4.9919E0
7.7575E2	-11.847E0
7.7615E2	-7.0683E0
7.7655E2	-3.8826E0
7.7695E2	-15.26E0
7.7735E2	-19.129E0
7.7775E2	-38.243E0
7.7816E2	-20.721E0
7.7856E2	-38.015E0
7.7896E2	-21.859E0
7.7936E2	-35.512E0
7.7976E2	-9.3439E0
7.8016E2	-31.644E0
7.8056E2	-10.254E0
7.8096E2	-32.099E0
7.8136E2	-22.542E0
7.8176E2	-32.782E0
7.8216E2	-38.926E0
7.8256E2	-18.446E0
7.8296E2	-9.5714E0
7.8337E2	-7.2959E0
7.8377E2	-42.339E0
7.8417E2	-7.0683E0
7.8457E2	-5.703E0
7.8497E2	-30.279E0
7.8537E2	-33.237E0
7.8577E2	-17.991E0
7.8617E2	-28.913E0
7.8657E2	-43.932E0
7.8697E2	-16.398E0
7.8737E2	-26.638E0
7.8777E2	-17.763E0
7.8817E2	-30.051E0
7.8857E2	-26.638E0
7.8896E2	-29.368E0
7.8936E2	-42.566E0
7.8976E2	-23.225E0
7.9016E2	-17.991E0
7.9056E2	-24.59E0
7.9096E2	-35.967E0
7.9136E2	-46.207E0
7.9176E2	-7.5234E0
7.9216E2	-19.811E0
7.9256E2	-42.566E0
7.9296E2	-23.907E0
7.9336E2	-15.943E0
7.9376E2	1.3511E0
7.9416E2	-17.536E0
7.9455E2	-10.709E0
7.9495E2	-11.164E0
7.9535E2	-15.26E0
7.9575E2	-17.763E0
7.9615E2	-20.494E0
7.9655E2	-22.997E0
7.9695E2	-20.721E0
7.9734E2	-36.195E0
7.9774E2	-32.327E0
7.9814E2	-9.5714E0
7.9854E2	-18.218E0
7.9894E2	-15.26E0
7.9934E2	-19.811E0
7.9973E2	-15.033E0
8.0013E2	-34.602E0
8.0053E2	-16.17E0
8.0093E2	-20.949E0
8.0133E2	-8.8888E0
8.0172E2	-3.6551E0
8.0212E2	-26.865E0
8.0252E2	-35.512E0
8.0292E2	-24.817E0
8.0332E2	-8.4336E0
8.0371E2	-13.895E0
8.0411E2	-7.0683E0
8.0451E2	-5.2479E0
8.0491E2	-7.5234E0
8.053E2	-16.853E0
8.057E2	44.088E-2
8.061E2	-24.362E0
8.065E2	-28.458E0
8.0689E2	-15.943E0
8.0729E2	-15.033E0
8.0769E2	-69.688E-2
8.0808E2	-16.626E0
8.0848E2	-22.314E0
8.0888E2	-24.817E0
8.0928E2	-30.734E0
8.0967E2	-23.225E0
8.1007E2	-23.452E0
8.1047E2	-30.961E0
8.1086E2	-26.183E0
8.1126E2	-23.452E0
8.1166E2	-44.614E0
8.1205E2	-27.548E0
8.1245E2	-25.955E0
8.1284E2	-20.721E0
8.1324E2	-29.596E0
8.1364E2	-40.291E0
8.1403E2	-21.632E0
8.1443E2	-16.626E0
8.1483E2	-17.763E0
8.1522E2	-7.5234E0
8.1562E2	-14.122E0
8.1601E2	-11.392E0
8.1641E2	-30.506E0
8.1681E2	-19.356E0
8.172E2	-20.494E0
8.176E2	-14.35E0
8.1799E2	-24.817E0
8.1839E2	-17.081E0
8.1878E2	-29.368E0
8.1918E2	-29.368E0
8.1957E2	-2.7448E0
8.1997E2	-21.404E0
8.2037E2	-22.997E0
8.2076E2	7.0399E0
8.2116E2	-30.506E0
8.2155E2	-19.129E0
8.2195E2	-15.488E0
8.2234E2	-30.961E0
8.2274E2	-26.183E0
8.2313E2	-20.494E0
8.2353E2	-22.997E0
8.2392E2	-25.273E0
8.2432E2	-30.961E0
8.2471E2	-31.189E0
8.2511E2	-35.967E0
8.255E2	-24.177E-2
8.2589E2	-24.135E0
8.2629E2	-22.087E0
8.2668E2	-24.135E0
8.2708E2	-13.212E0
8.2747E2	-39.836E0
8.2787E2	-21.404E0
8.2826E2	-55.992E0
8.2866E2	-45.297E0
8.2905E2	-12.985E0
8.2944E2	-21.859E0
8.2984E2	-32.327E0
8.3023E2	-13.667E0
8.3063E2	-26.865E0
8.3102E2	-20.039E0
8.3141E2	-21.632E0
8.3181E2	-20.266E0
8.322E2	-12.074E0
8.3259E2	5.447E0
8.3299E2	-22.314E0
8.3338E2	-25.955E0
8.3378E2	-33.009E0
8.3417E2	-42.566E0
8.3456E2	-36.423E0
8.3496E2	-26.865E0
8.3535E2	-5.2479E0
8.3574E2	-11.847E0
8.3613E2	-9.1163E0
8.3653E2	-17.763E0
8.3692E2	-22.542E0
8.3731E2	-14.578E0
8.3771E2	-4.7928E0
8.381E2	-21.632E0
8.3849E2	-14.578E0
8.3889E2	-9.5714E0
8.3928E2	-14.122E0
8.3967E2	-8.8888E0
8.4006E2	-1.3795E0
8.4046E2	-6.8408E0
8.4085E2	-10.027E0
8.4124E2	-23.907E0
8.4163E2	-25.273E0
8.4203E2	-17.536E0
8.4242E2	-16.398E0
8.4281E2	-9.3439E0
8.432E2	-28.913E0
8.4359E2	-27.776E0
8.4399E2	-6.8408E0
8.4438E2	-38.698E0
8.4477E2	-30.051E0
8.4516E2	-8.6612E0
8.4555E2	-30.961E0
8.4595E2	-33.919E0
8.4634E2	-21.632E0
8.4673E2	-8.2061E0
8.4712E2	-24.135E0
8.4751E2	-15.26E0
8.479E2	-26.865E0
8.4829E2	-37.105E0
8.4869E2	-38.015E0
8.4908E2	-3.4275E0
8.4947E2	-21.404E0
8.4986E2	-18.218E0
8.5025E2	-38.471E0
8.5064E2	-36.65E0
8.5103E2	-31.416E0
8.5142E2	-20.494E0
8.5181E2	-20.039E0
8.5221E2	-43.477E0
8.526E2	-16.626E0
8.5299E2	-13.44E0
8.5338E2	-20.721E0
8.5377E2	-49.393E0
8.5416E2	-22.087E0
8.5455E2	-20.039E0
8.5494E2	-25.045E0
8.5533E2	-25.50E0
8.5572E2	-19.129E0
8.5611E2	-45.07E0
8.565E2	-13.895E0
8.5689E2	-21.177E0
8.5728E2	-69.688E-2
8.5767E2	-12.074E0
8.5806E2	-17.536E0
8.5845E2	-22.087E0
8.5884E2	-26.41E0
8.5923E2	-27.548E0
8.5962E2	-3.200E0
8.6001E2	-18.218E0
8.604E2	-24.817E0
8.6079E2	-35.512E0
8.6118E2	-22.542E0
8.6157E2	-36.423E0
8.6196E2	-27.32E0
8.6235E2	-30.961E0
8.6274E2	-9.5714E0
8.6313E2	-43.704E0
8.6352E2	-34.83E0
8.639E2	-44.159E0
8.6429E2	-37.788E0
8.6468E2	-22.314E0
8.6507E2	-27.548E0
8.6546E2	-31.416E0
8.6585E2	-34.375E0
8.6624E2	-16.398E0
8.6663E2	-13.895E0
8.6702E2	-38.926E0
8.674E2	-26.41E0
8.6779E2	-31.872E0
8.6818E2	-12.985E0
8.6857E2	-25.045E0
8.6896E2	-7.9785E0
8.6935E2	-26.183E0
8.6973E2	-30.506E0
8.7012E2	-27.093E0
8.7051E2	-20.039E0
8.709E2	-40.974E0
8.7129E2	-31.872E0
8.7167E2	-40.063E0
8.7206E2	-20.949E0
8.7245E2	-27.093E0
8.7284E2	-35.512E0
8.7323E2	-23.907E0
8.7361E2	-33.237E0
8.740E2	-20.494E0
8.7439E2	-33.237E0
8.7478E2	-22.542E0
8.7516E2	-15.715E0
8.7555E2	-10.027E0
8.7594E2	-27.548E0
8.7633E2	-3.200E0
8.7671E2	66.843E-2
8.771E2	-19.356E0
8.7749E2	-24.362E0
8.7787E2	-28.458E0
8.7826E2	-5.2479E0
8.7865E2	-34.147E0
8.7904E2	-12.985E0
8.7942E2	-30.734E0
8.7981E2	44.088E-2
8.802E2	-29.596E0
8.8058E2	-15.033E0
8.8097E2	-45.07E0
8.8136E2	-20.266E0
8.8174E2	-27.548E0
8.8213E2	-18.673E0
8.8252E2	-21.632E0
8.829E2	-19.811E0
8.8329E2	-12.074E0
8.8367E2	-25.955E0
8.8406E2	-24.817E0
8.8445E2	-4.3377E0
8.8483E2	-25.273E0
8.8522E2	-20.266E0
8.856E2	-32.782E0
8.8599E2	-6.1581E0
8.8638E2	-25.045E0
8.8676E2	-36.423E0
8.8715E2	-28.686E0
8.8753E2	-32.554E0
8.8792E2	-15.715E0
8.883E2	-30.506E0
8.8869E2	-30.961E0
8.8907E2	-23.225E0
8.8946E2	-20.266E0
8.8984E2	-48.938E0
8.9023E2	-7.751E0
8.9062E2	-20.494E0
8.910E2	3.8542E0
8.9139E2	-15.715E0
8.9177E2	-31.189E0
8.9216E2	-31.189E0
8.9254E2	-25.50E0
8.9292E2	-12.302E0
8.9331E2	-20.039E0
8.9369E2	-28.913E0
8.9408E2	-42.794E0
8.9446E2	-49.393E0
8.9485E2	-35.057E0
8.9523E2	-31.189E0
8.9562E2	-29.824E0
8.960E2	-41.201E0
8.9639E2	-13.895E0
8.9677E2	-12.074E0
8.9715E2	-23.225E0
8.9754E2	-26.638E0
8.9792E2	-31.189E0
8.9831E2	-16.398E0
8.9869E2	-32.327E0
8.9907E2	-24.817E0
8.9946E2	-54.854E0
8.9984E2	-19.584E0
9.0022E2	-3.4275E0
9.0061E2	-44.387E0
9.0099E2	-28.003E0
9.0138E2	-5.703E0
9.0176E2	-2.2897E0
9.0214E2	5.2195E0
9.0253E2	-1.4222E-2
9.0291E2	-21.632E0
9.0329E2	-1.4222E-2
9.0368E2	-24.817E0
9.0406E2	-24.817E0
9.0444E2	-14.578E0
9.0482E2	-27.548E0
9.0521E2	-26.638E0
9.0559E2	-20.039E0
9.0597E2	-41.429E0
9.0636E2	-18.673E0
9.0674E2	-35.285E0
9.0712E2	-36.423E0
9.075E2	-45.525E0
9.0789E2	-31.872E0
9.0827E2	-16.17E0
9.0865E2	-46.207E0
9.0903E2	-17.081E0
9.0941E2	-37.56E0
9.098E2	-8.4336E0
9.1018E2	-27.093E0
9.1056E2	-25.273E0
9.1094E2	-18.446E0
9.1133E2	-30.506E0
9.1171E2	-28.913E0
9.1209E2	-18.901E0
9.1247E2	89.599E-2
9.1285E2	-12.757E0
9.1323E2	-11.392E0
9.1362E2	-31.189E0
9.140E2	-26.41E0
9.1438E2	-24.59E0
9.1476E2	-27.32E0
9.1514E2	-25.955E0
9.1552E2	-26.183E0
9.159E2	-32.782E0
9.1629E2	-23.225E0
9.1667E2	-12.985E0
9.1705E2	-46.933E-2
9.1743E2	-33.919E0
9.1781E2	-25.50E0
9.1819E2	-30.051E0
9.1857E2	-69.688E-2
9.1895E2	-31.872E0
9.1933E2	-13.895E0
9.1971E2	-31.644E0
9.2009E2	-17.763E0
9.2047E2	7.2674E0
9.2085E2	-31.872E0
9.2123E2	-25.50E0
9.2162E2	-28.913E0
9.220E2	-43.022E0
9.2238E2	-30.734E0
9.2276E2	-29.141E0
9.2314E2	-51.896E0
9.2352E2	-30.961E0
9.239E2	-6.3857E0
9.2428E2	-19.811E0
9.2466E2	-24.817E0
9.2504E2	-28.913E0
9.2542E2	-27.776E0
9.2579E2	-25.50E0
9.2617E2	-24.135E0
9.2655E2	-3.4275E0
9.2693E2	-15.715E0
9.2731E2	-22.087E0
9.2769E2	-28.003E0
9.2807E2	-33.919E0
9.2845E2	-32.782E0
9.2883E2	-49.165E0
9.2921E2	-15.26E0
9.2959E2	-12.53E0
9.2997E2	-17.763E0
9.3035E2	-11.619E0
9.3072E2	-45.98E0
9.311E2	-25.728E0
9.3148E2	-26.638E0
9.3186E2	-13.667E0
9.3224E2	-27.548E0
9.3262E2	-29.824E0
9.330E2	-17.308E0
9.3338E2	-29.368E0
9.3375E2	-42.794E0
9.3413E2	-39.836E0
9.3451E2	-38.926E0
9.3489E2	-29.368E0
9.3527E2	-37.788E0
9.3564E2	-12.53E0
9.3602E2	-23.225E0
9.364E2	-31.872E0
9.3678E2	-19.584E0
9.3716E2	-23.225E0
9.3753E2	-14.805E0
9.3791E2	-16.17E0
9.3829E2	2.2613E0
9.3867E2	-25.50E0
9.3904E2	-22.997E0
9.3942E2	-17.081E0
9.398E2	1.8062E0
9.4018E2	-15.033E0
9.4055E2	-37.333E0
9.4093E2	-31.189E0
9.4131E2	-24.135E0
9.4169E2	-41.884E0
9.4206E2	-41.884E0
9.4244E2	-26.183E0
9.4282E2	-16.17E0
9.4319E2	-37.105E0
9.4357E2	-31.189E0
9.4395E2	-35.285E0
9.4432E2	-29.141E0
9.447E2	-24.135E0
9.4508E2	-29.824E0
9.4545E2	-42.566E0
9.4583E2	-16.853E0
9.4621E2	-23.452E0
9.4658E2	-9.799E0
9.4696E2	-15.943E0
9.4733E2	-26.865E0
9.4771E2	-15.26E0
9.4809E2	-15.26E0
9.4846E2	-4.3377E0
9.4884E2	-28.003E0
9.4921E2	-17.536E0
9.4959E2	-18.218E0
9.4997E2	-22.087E0
9.5034E2	-6.8408E0
9.5072E2	-42.794E0
9.5109E2	-15.715E0
9.5147E2	-15.26E0
9.5184E2	-30.961E0
9.5222E2	-34.375E0
9.5259E2	-36.65E0
9.5297E2	-28.913E0
9.5335E2	-20.266E0
9.5372E2	-16.853E0
9.541E2	-24.817E0
9.5447E2	-12.53E0
9.5485E2	-19.129E0
9.5522E2	-31.872E0
9.556E2	-23.907E0
9.5597E2	-38.926E0
9.5634E2	-38.926E0
9.5672E2	-17.081E0
9.5709E2	-33.237E0
9.5747E2	-52.351E0
9.5784E2	-16.626E0
9.5822E2	-14.122E0
9.5859E2	-20.721E0
9.5897E2	-28.003E0
9.5934E2	-25.273E0
9.5971E2	-14.122E0
9.6009E2	-22.087E0
9.6046E2	-31.416E0
9.6084E2	-36.878E0
9.6121E2	-39.836E0
9.6158E2	-18.218E0
9.6196E2	-9.5714E0
9.6233E2	-22.997E0
9.6271E2	-34.602E0
9.6308E2	-15.033E0
9.6345E2	-26.183E0
9.6383E2	-11.619E0
9.642E2	-29.824E0
9.6457E2	-23.68E0
9.6495E2	-32.099E0
9.6532E2	-31.416E0
9.6569E2	-12.757E0
9.6607E2	-33.237E0
9.6644E2	-2.2897E0
9.6681E2	-37.788E0
9.6718E2	-9.3439E0
9.6756E2	-36.878E0
9.6793E2	-39.608E0
9.683E2	-23.68E0
9.6867E2	-21.859E0
9.6905E2	-27.093E0
9.6942E2	-24.362E0
9.6979E2	-35.285E0
9.7016E2	-43.249E0
9.7054E2	-20.949E0
9.7091E2	-30.506E0
9.7128E2	-17.308E0
9.7165E2	-31.416E0
9.7203E2	-10.937E0
9.724E2	-14.35E0
9.7277E2	-24.362E0
9.7314E2	-38.243E0
9.7351E2	-39.608E0
9.7389E2	-28.458E0
9.7426E2	-45.07E0
9.7463E2	-13.44E0
9.750E2	-17.991E0
9.7537E2	-22.087E0
9.7574E2	-17.763E0
9.7611E2	-35.74E0
9.7649E2	-28.231E0
9.7686E2	-17.536E0
9.7723E2	-41.884E0
9.776E2	-8.6612E0
9.7797E2	-22.769E0
9.7834E2	4.6442E2
9.7871E2	6.1297E0
9.7908E2	-14.578E0
9.7945E2	-20.039E0
9.7982E2	-17.081E0
9.802E2	-22.314E0
9.8057E2	-35.057E0
9.8094E2	-19.356E0
9.8131E2	-22.997E0
9.8168E2	-32.782E0
9.8205E2	-20.949E0
9.8242E2	-27.776E0
9.8279E2	-18.218E0
9.8316E2	-29.824E0
9.8353E2	-21.632E0
9.839E2	-43.932E0
9.8427E2	-35.967E0
9.8464E2	-20.039E0
9.8501E2	-37.105E0
9.8538E2	-23.452E0
9.8575E2	-16.626E0
9.8612E2	-47.345E0
9.8649E2	-16.853E0
9.8686E2	-42.566E0
9.8723E2	-16.17E0
9.876E2	-46.933E-2
9.8796E2	-29.368E0
9.8833E2	-17.763E0
9.887E2	-30.279E0
9.8907E2	-17.991E0
9.8944E2	-20.721E0
9.8981E2	-24.135E0
9.9018E2	-10.482E0
9.9055E2	-34.83E0
9.9092E2	-40.291E0
9.9129E2	-22.769E0
9.9165E2	-20.494E0
9.9202E2	-22.997E0
9.9239E2	-22.997E0
9.9276E2	-25.273E0
9.9313E2	-13.895E0
9.935E2	-22.542E0
9.9387E2	-23.452E0
9.9423E2	-26.183E0
9.946E2	-25.273E0
9.9497E2	-5.703E0
9.9534E2	-37.105E0
9.9571E2	-24.362E0
9.9607E2	-26.638E0
9.9644E2	-30.051E0
9.9681E2	-23.68E0
9.9718E2	-5.9306E0
9.9755E2	-7.2959E0
9.9791E2	-33.464E0
9.9828E2	-20.039E0
9.9865E2	-17.536E0
9.9902E2	-33.009E0
9.9938E2	-23.225E0
9.9975E2	-32.554E0
10.001E2	-28.913E0
10.005E2	-35.512E0
10.009E2	2.944E0
10.012E2	-44.387E0
10.016E2	-26.865E0
10.02E2	-24.59E0
10.023E2	-10.937E0
10.027E2	-18.673E0
10.031E2	-38.471E0
10.034E2	-29.824E0
10.038E2	-1.4222E-2
10.042E2	-37.56E0
10.045E2	-22.087E0
10.049E2	-30.961E0
10.053E2	-35.967E0
10.056E2	-31.872E0
10.06E2	-46.89E0
10.064E2	-17.308E0
10.067E2	-28.686E0
10.071E2	-7.9785E0
10.074E2	-21.632E0
10.078E2	-33.009E0
10.082E2	-21.859E0
10.085E2	-26.638E0
10.089E2	-27.32E0
10.093E2	-31.644E0
10.096E2	-24.817E0
10.10E2	-12.53E0
10.104E2	-25.955E0
10.107E2	-17.536E0
10.111E2	-20.039E0
10.115E2	-30.961E0
10.118E2	-18.446E0
10.122E2	-31.872E0
10.126E2	-35.512E0
10.129E2	-1.6071E0
10.133E2	-13.44E0
10.137E2	-29.141E0
10.14E2	-28.686E0
10.144E2	-22.314E0
10.148E2	-12.302E0
10.151E2	-8.2061E0
10.155E2	-3.4275E0
10.158E2	-19.356E0
10.162E2	-14.35E0
10.166E2	-16.626E0
10.169E2	-8.2061E0
10.173E2	-25.273E0
10.177E2	-29.368E0
10.18E2	-22.314E0
10.184E2	-22.314E0
10.188E2	-25.50E0
10.191E2	-28.458E0
10.195E2	-13.44E0
10.199E2	-24.817E0
10.202E2	-26.638E0
10.206E2	-44.614E0
10.209E2	-29.368E0
10.213E2	-37.333E0
10.217E2	-20.721E0
10.22E2	-29.824E0
10.224E2	-19.584E0
10.228E2	-28.003E0
10.231E2	-37.788E0
10.235E2	-39.153E0
10.238E2	-48.71E0
10.242E2	-41.656E0
10.246E2	-35.967E0
10.249E2	-15.943E0
10.253E2	-23.907E0
10.257E2	-23.68E0
10.26E2	-13.212E0
10.264E2	-23.68E0
10.267E2	-39.381E0
10.271E2	-9.5714E0
10.275E2	-20.039E0
10.278E2	-25.955E0
10.282E2	-27.093E0
10.286E2	-15.26E0
10.289E2	-7.751E0
10.293E2	-6.6132E0
10.296E2	-8.4336E0
10.30E2	-21.859E0
10.304E2	-32.782E0
10.307E2	-30.961E0
10.311E2	-25.273E0
10.315E2	-25.273E0
10.318E2	-37.333E0
10.322E2	-37.788E0
10.325E2	-29.824E0
10.329E2	-27.093E0
10.333E2	-24.59E0
10.336E2	-40.746E0
10.34E2	-36.878E0
10.343E2	-28.913E0
10.347E2	-14.578E0
10.351E2	-22.769E0
10.354E2	-26.41E0
10.358E2	-30.051E0
10.362E2	-32.099E0
10.365E2	-30.734E0
10.369E2	-25.045E0
10.372E2	-21.632E0
10.376E2	-29.368E0
10.38E2	-16.398E0
