Data from JAZA26501_13-58-02-468.txt Node
Date: Sun Sep 29 13:58:02 ADT 2013
User: oceanview
Spectrometer:  JAZA2650
Trigger mode: 0
Integration Time (sec): 1.000000E-1
Scans to average: 10
Electric dark correction enabled: true
Nonlinearity correction enabled: false
Boxcar width: 0
XAxis mode: Wavelengths
Number of Pixels in Spectrum: 2048
>>>>>Begin Spectral Data<<<<<
1.897E2	-30.222E0
1.9015E2	-30.222E0
1.9061E2	-30.222E0
1.9106E2	-17.479E0
1.9151E2	-2.0053E0
1.9197E2	15.971E0
1.9242E2	6.6417E0
1.9288E2	13.923E0
1.9333E2	20.977E0
1.9378E2	10.738E0
1.9424E2	8.007E0
1.9469E2	8.4621E0
1.9515E2	-1.0951E0
1.956E2	-6.1012E0
1.9605E2	-11.79E0
1.9651E2	-5.6461E0
1.9696E2	-6.7839E0
1.9742E2	-3.5982E0
1.9787E2	-6.7839E0
1.9832E2	27.022E-2
1.9878E2	4.8213E0
1.9923E2	7.7794E0
1.9968E2	-17.934E0
2.0014E2	-11.335E0
2.0059E2	-14.976E0
2.0104E2	-10.652E0
2.015E2	-12.245E0
2.0195E2	-16.569E0
2.0241E2	1.6355E0
2.0286E2	-6.7839E0
2.0331E2	-8.8319E0
2.0377E2	-32.27E0
2.0422E2	-1.5502E0
2.0467E2	-24.305E0
2.0513E2	-24.078E0
2.0558E2	-18.489E-2
2.0603E2	-14.521E0
2.0649E2	-32.725E0
2.0694E2	-21.12E0
2.0739E2	-19.299E0
2.0785E2	-10.652E0
2.083E2	-18.617E0
2.0875E2	-20.665E0
2.0921E2	4.1386E0
2.0966E2	-18.389E0
2.1011E2	-13.61E0
2.1056E2	-21.12E0
2.1102E2	7.0968E0
2.1147E2	-5.4186E0
2.1192E2	-24.078E0
2.1238E2	-5.6461E0
2.1283E2	-8.8319E0
2.1328E2	-31.815E0
2.1374E2	-23.395E0
2.1419E2	-34.09E0
2.1464E2	-18.844E0
2.1509E2	-10.88E0
2.1555E2	-11.107E0
2.160E2	-11.79E0
2.1645E2	5.5039E0
2.169E2	-41.244E-2
2.1736E2	-15.886E0
2.1781E2	-25.443E0
2.1826E2	-15.886E0
2.1872E2	-42.737E0
2.1917E2	-31.36E0
2.1962E2	-28.401E0
2.2007E2	-30.222E0
2.2053E2	-41.827E0
2.2098E2	-30.904E0
2.2143E2	-15.431E0
2.2188E2	-26.353E0
2.2234E2	-27.946E0
2.2279E2	-21.575E0
2.2324E2	-19.982E0
2.2369E2	-17.024E0
2.2414E2	-9.9696E0
2.246E2	-52.294E0
2.2505E2	-13.61E0
2.255E2	-40.689E0
2.2595E2	-17.934E0
2.2641E2	-30.904E0
2.2686E2	-21.802E0
2.2731E2	-25.671E0
2.2776E2	-29.994E0
2.2821E2	-37.503E0
2.2867E2	-25.216E0
2.2912E2	-18.844E0
2.2957E2	-20.892E0
2.3002E2	-25.671E0
2.3047E2	-40.234E0
2.3093E2	-7.239E0
2.3138E2	-17.934E0
2.3183E2	-29.084E0
2.3228E2	-5.4186E0
2.3273E2	-6.1012E0
2.3318E2	-13.155E0
2.3364E2	-23.395E0
2.3409E2	-18.844E0
2.3454E2	-44.33E0
2.3499E2	-32.042E0
2.3544E2	-29.539E0
2.3589E2	-15.431E0
2.3635E2	-16.796E0
2.368E2	-18.162E0
2.3725E2	-27.036E0
2.377E2	-37.276E0
2.3815E2	-40.007E0
2.386E2	-10.652E0
2.3905E2	-15.431E0
2.3951E2	-21.347E0
2.3996E2	-3.1431E0
2.4041E2	-19.982E0
2.4086E2	-12.245E0
2.4131E2	-19.754E0
2.4176E2	-3.1431E0
2.4221E2	-12.473E0
2.4266E2	-24.533E0
2.4312E2	-13.383E0
2.4357E2	-42.737E0
2.4402E2	-24.305E0
2.4447E2	-26.808E0
2.4492E2	-24.078E0
2.4537E2	-25.671E0
2.4582E2	-33.635E0
2.4627E2	-27.719E0
2.4672E2	27.022E-2
2.4717E2	-17.706E0
2.4763E2	-5.6461E0
2.4808E2	-24.533E0
2.4853E2	-22.03E0
2.4898E2	-7.4666E0
2.4943E2	-11.79E0
2.4988E2	-10.652E0
2.5033E2	-15.886E0
2.5078E2	-19.072E0
2.5123E2	-12.018E0
2.5168E2	-29.767E0
2.5213E2	-29.539E0
2.5258E2	-25.898E0
2.5303E2	-10.425E0
2.5348E2	-8.3768E0
2.5393E2	-14.976E0
2.5438E2	-17.251E0
2.5484E2	-7.0114E0
2.5529E2	-8.8319E0
2.5574E2	-36.593E0
2.5619E2	-9.5145E0
2.5664E2	-30.222E0
2.5709E2	1.408E0
2.5754E2	-14.293E0
2.5799E2	3.4559E0
2.5844E2	95.287E-2
2.5889E2	-14.976E0
2.5934E2	-3.5982E0
2.5979E2	-20.437E0
2.6024E2	-18.162E0
2.6069E2	-13.155E0
2.6114E2	-25.443E0
2.6159E2	-31.587E0
2.6204E2	-47.971E0
2.6249E2	-42.51E0
2.6294E2	-18.162E0
2.6339E2	-19.072E0
2.6384E2	-12.018E0
2.6429E2	-10.88E0
2.6474E2	-19.299E0
2.6519E2	-17.251E0
2.6564E2	-13.383E0
2.6609E2	-5.191E0
2.6654E2	-25.671E0
2.6699E2	-17.706E0
2.6744E2	-4.0533E0
2.6789E2	-19.982E0
2.6833E2	-25.443E0
2.6878E2	-32.725E0
2.6923E2	-27.719E0
2.6968E2	-37.731E0
2.7013E2	-22.257E0
2.7058E2	-36.138E0
2.7103E2	-37.503E0
2.7148E2	-30.677E0
2.7193E2	-31.132E0
2.7238E2	-11.107E0
2.7283E2	-23.168E0
2.7328E2	-12.473E0
2.7373E2	-38.414E0
2.7418E2	-18.844E0
2.7463E2	-23.395E0
2.7507E2	3.4559E0
2.7552E2	-41.244E-2
2.7597E2	-11.335E0
2.7642E2	4.8213E0
2.7687E2	-44.33E0
2.7732E2	-17.934E0
2.7777E2	-28.856E0
2.7822E2	-33.863E0
2.7867E2	-20.209E0
2.7912E2	-37.959E0
2.7956E2	-20.665E0
2.8001E2	-7.0114E0
2.8046E2	-11.107E0
2.8091E2	-20.209E0
2.8136E2	-8.8319E0
2.8181E2	-23.168E0
2.8226E2	-5.4186E0
2.8271E2	-46.378E0
2.8315E2	-32.042E0
2.836E2	-13.383E0
2.8405E2	-32.952E0
2.845E2	-20.665E0
2.8495E2	-2.0053E0
2.854E2	-1.3226E0
2.8585E2	-23.168E0
2.8629E2	-10.652E0
2.8674E2	-26.808E0
2.8719E2	-13.61E0
2.8764E2	-15.203E0
2.8809E2	-15.431E0
2.8854E2	-24.078E0
2.8898E2	-24.988E0
2.8943E2	-34.773E0
2.8988E2	-36.366E0
2.9033E2	-15.886E0
2.9078E2	-12.928E0
2.9122E2	-31.36E0
2.9167E2	-18.844E0
2.9212E2	-7.4666E0
2.9257E2	-24.533E0
2.9302E2	-24.305E0
2.9346E2	-20.892E0
2.9391E2	3.9111E0
2.9436E2	-23.395E0
2.9481E2	-9.0594E0
2.9526E2	-35.911E0
2.957E2	-17.479E0
2.9615E2	-28.629E0
2.966E2	18.474E0
2.9705E2	-13.838E0
2.9749E2	-30.677E0
2.9794E2	-29.084E0
2.9839E2	-18.617E0
2.9884E2	-14.976E0
2.9928E2	-18.162E0
2.9973E2	-10.88E0
3.0018E2	-17.251E0
3.0063E2	-12.70E0
3.0107E2	-16.114E0
3.0152E2	-4.9635E0
3.0197E2	-24.533E0
3.0242E2	-13.838E0
3.0286E2	-18.162E0
3.0331E2	4.5937E0
3.0376E2	-24.078E0
3.0421E2	-9.7421E0
3.0465E2	-4.5084E0
3.051E2	-42.51E0
3.0555E2	-15.203E0
3.0599E2	-12.018E0
3.0644E2	-9.9696E0
3.0689E2	-14.293E0
3.0734E2	-5.6461E0
3.0778E2	-16.569E0
3.0823E2	-23.623E0
3.0868E2	-27.491E0
3.0912E2	-28.401E0
3.0957E2	-10.425E0
3.1002E2	-37.959E0
3.1046E2	-32.27E0
3.1091E2	-7.4666E0
3.1136E2	-22.485E0
3.118E2	-15.658E0
3.1225E2	-17.479E0
3.127E2	-22.257E0
3.1314E2	-12.473E0
3.1359E2	-28.856E0
3.1404E2	-15.886E0
3.1448E2	-23.395E0
3.1493E2	-16.341E0
3.1538E2	-18.389E0
3.1582E2	20.295E0
3.1627E2	-5.6461E0
3.1672E2	-12.245E0
3.1716E2	-26.126E0
3.1761E2	-27.719E0
3.1805E2	-26.126E0
3.185E2	-19.072E0
3.1895E2	-28.401E0
3.1939E2	-40.689E0
3.1984E2	-19.299E0
3.2029E2	-21.802E0
3.2073E2	-16.341E0
3.2118E2	-21.347E0
3.2162E2	-35.911E0
3.2207E2	-21.575E0
3.2252E2	-8.3768E0
3.2296E2	-15.431E0
3.2341E2	-10.425E0
3.2385E2	-8.3768E0
3.243E2	-15.658E0
3.2474E2	-23.623E0
3.2519E2	-3.5982E0
3.2564E2	-14.066E0
3.2608E2	-23.85E0
3.2653E2	-18.162E0
3.2697E2	-17.479E0
3.2742E2	-10.197E0
3.2786E2	-16.796E0
3.2831E2	-17.706E0
3.2876E2	-28.856E0
3.292E2	-32.042E0
3.2965E2	-21.12E0
3.3009E2	-20.209E0
3.3054E2	-20.437E0
3.3098E2	-11.107E0
3.3143E2	4.2666E-2
3.3187E2	-27.719E0
3.3232E2	-21.575E0
3.3276E2	-6.3288E0
3.3321E2	-17.479E0
3.3365E2	-35.911E0
3.341E2	-17.251E0
3.3454E2	-3.1431E0
3.3499E2	-14.066E0
3.3543E2	-86.754E-2
3.3588E2	-18.844E0
3.3632E2	-22.485E0
3.3677E2	-11.107E0
3.3721E2	-1.0951E0
3.3766E2	-5.4186E0
3.381E2	-22.257E0
3.3855E2	-7.6941E0
3.3899E2	-2.9155E0
3.3944E2	-2.0053E0
3.3988E2	-22.03E0
3.4033E2	-9.9696E0
3.4077E2	-23.168E0
3.4122E2	-12.245E0
3.4166E2	-20.892E0
3.4211E2	-17.479E0
3.4255E2	-17.706E0
3.430E2	-24.305E0
3.4344E2	-40.007E0
3.4388E2	-26.126E0
3.4433E2	-26.353E0
3.4477E2	-3.8257E0
3.4522E2	-24.305E0
3.4566E2	-25.443E0
3.4611E2	-7.0114E0
3.4655E2	-10.652E0
3.470E2	-22.713E0
3.4744E2	-17.251E0
3.4788E2	-24.988E0
3.4833E2	-13.838E0
3.4877E2	72.532E-2
3.4922E2	-19.754E0
3.4966E2	-14.066E0
3.501E2	-9.287E0
3.5055E2	-3.5982E0
3.5099E2	-13.383E0
3.5144E2	-15.886E0
3.5188E2	-17.479E0
3.5232E2	-19.754E0
3.5277E2	-10.88E0
3.5321E2	3.4559E0
3.5365E2	-17.479E0
3.541E2	-19.072E0
3.5454E2	-34.09E0
3.5499E2	-30.449E0
3.5543E2	-1.7778E0
3.5587E2	-11.107E0
3.5632E2	-23.168E0
3.5676E2	-12.928E0
3.572E2	-7.0114E0
3.5765E2	-12.018E0
3.5809E2	1.1804E0
3.5853E2	-3.1431E0
3.5898E2	-19.072E0
3.5942E2	-20.437E0
3.5986E2	-4.2808E0
3.6031E2	-19.982E0
3.6075E2	-36.138E0
3.6119E2	-21.12E0
3.6164E2	-21.347E0
3.6208E2	-19.982E0
3.6252E2	-13.383E0
3.6297E2	-20.665E0
3.6341E2	-7.239E0
3.6385E2	-6.5563E0
3.6429E2	-7.6941E0
3.6474E2	-19.754E0
3.6518E2	-8.8319E0
3.6562E2	-35.00E0
3.6607E2	-13.383E0
3.6651E2	-19.072E0
3.6695E2	-27.719E0
3.6739E2	-14.066E0
3.6784E2	-21.347E0
3.6828E2	-27.946E0
3.6872E2	-23.623E0
3.6916E2	-22.485E0
3.6961E2	-10.88E0
3.7005E2	-7.9217E0
3.7049E2	-17.251E0
3.7093E2	-28.629E0
3.7138E2	-31.815E0
3.7182E2	-22.94E0
3.7226E2	-6.3288E0
3.727E2	-36.138E0
3.7315E2	-23.395E0
3.7359E2	-5.8737E0
3.7403E2	-8.8319E0
3.7447E2	-12.70E0
3.7492E2	-14.748E0
3.7536E2	-18.162E0
3.758E2	-19.072E0
3.7624E2	-28.401E0
3.7668E2	3.2284E0
3.7713E2	-29.539E0
3.7757E2	2.5457E0
3.7801E2	-4.7359E0
3.7845E2	-3.8257E0
3.7889E2	-3.5982E0
3.7934E2	-22.03E0
3.7978E2	12.103E0
3.8022E2	-12.245E0
3.8066E2	27.022E-2
3.811E2	10.055E0
3.8154E2	-10.197E0
3.8199E2	-15.431E0
3.8243E2	-4.0533E0
3.8287E2	-19.299E0
3.8331E2	-24.305E0
3.8375E2	-4.7359E0
3.8419E2	13.241E0
3.8463E2	-16.796E0
3.8508E2	-17.024E0
3.8552E2	-21.802E0
3.8596E2	-9.5145E0
3.864E2	-6.3288E0
3.8684E2	-14.293E0
3.8728E2	5.2764E0
3.8772E2	-11.562E0
3.8816E2	49.777E-2
3.8861E2	2.7733E0
3.8905E2	7.0968E0
3.8949E2	-14.293E0
3.8993E2	-13.155E0
3.9037E2	-5.4186E0
3.9081E2	3.9111E0
3.9125E2	27.022E-2
3.9169E2	-13.383E0
3.9213E2	-5.8737E0
3.9257E2	-13.383E0
3.9301E2	10.965E0
3.9346E2	4.3662E0
3.939E2	-1.3226E0
3.9434E2	-21.347E0
3.9478E2	-24.078E0
3.9522E2	-12.245E0
3.9566E2	4.2666E-2
3.961E2	-3.8257E0
3.9654E2	-20.892E0
3.9698E2	21.888E0
3.9742E2	-1.5502E0
3.9786E2	-15.203E0
3.983E2	-30.222E0
3.9874E2	9.5999E0
3.9918E2	-15.886E0
3.9962E2	-7.0114E0
4.0006E2	-27.036E0
4.005E2	-8.3768E0
4.0094E2	-4.5084E0
4.0138E2	-7.6941E0
4.0182E2	-10.652E0
4.0226E2	-10.197E0
4.027E2	-9.7421E0
4.0314E2	19.385E0
4.0358E2	3.4559E0
4.0402E2	15.061E0
4.0446E2	-10.197E0
4.049E2	-20.892E0
4.0534E2	-8.6043E0
4.0578E2	-7.0114E0
4.0622E2	12.786E0
4.0666E2	-7.6941E0
4.071E2	-1.7778E0
4.0754E2	-7.239E0
4.0798E2	3.4559E0
4.0842E2	-8.1492E0
4.0886E2	-12.473E0
4.093E2	-8.3768E0
4.0974E2	1.6355E0
4.1018E2	14.151E0
4.1062E2	27.022E-2
4.1106E2	3.9111E0
4.115E2	-5.8737E0
4.1194E2	-1.0951E0
4.1237E2	2.7733E0
4.1281E2	9.3723E0
4.1325E2	15.516E0
4.1369E2	16.426E0
4.1413E2	3.6835E0
4.1457E2	15.061E0
4.1501E2	27.349E0
4.1545E2	11.648E0
4.1589E2	8.4621E0
4.1633E2	18.702E0
4.1676E2	22.798E0
4.172E2	-3.3706E0
4.1764E2	31.217E0
4.1808E2	-2.4604E0
4.1852E2	20.295E0
4.1896E2	10.738E0
4.194E2	23.481E0
4.1984E2	34.631E0
4.2027E2	32.81E0
4.2071E2	41.002E0
4.2115E2	43.278E0
4.2159E2	44.188E0
4.2203E2	33.948E0
4.2247E2	35.541E0
4.2291E2	38.499E0
4.2334E2	38.499E0
4.2378E2	46.918E0
4.2422E2	39.182E0
4.2466E2	35.086E0
4.251E2	39.409E0
4.2554E2	46.463E0
4.2597E2	39.409E0
4.2641E2	56.931E0
4.2685E2	48.966E0
4.2729E2	63.075E0
4.2773E2	63.53E0
4.2816E2	77.183E0
4.286E2	89.471E0
4.2904E2	67.853E0
4.2948E2	99.71E0
4.2991E2	92.429E0
4.3035E2	98.573E0
4.3079E2	89.016E0
4.3123E2	72.404E0
4.3167E2	79.913E0
4.321E2	1.1154E2
4.3254E2	1.1564E2
4.3298E2	88.788E0
4.3342E2	1.2178E2
4.3385E2	1.2815E2
4.3429E2	1.2315E2
4.3473E2	1.2997E2
4.3517E2	1.6843E2
4.356E2	1.616E2
4.3604E2	1.4954E2
4.3648E2	1.8208E2
4.3692E2	1.6616E2
4.3735E2	1.7435E2
4.3779E2	1.814E2
4.3823E2	1.9323E2
4.3866E2	1.9369E2
4.391E2	1.9096E2
4.3954E2	2.0598E2
4.3997E2	2.5604E2
4.4041E2	2.2942E2
4.4085E2	2.4216E2
4.4129E2	2.4352E2
4.4172E2	2.5467E2
4.4216E2	2.6127E2
4.426E2	2.5968E2
4.4303E2	2.6582E2
4.4347E2	2.8175E2
4.4391E2	2.970E2
4.4434E2	2.6469E2
4.4478E2	3.0041E2
4.4522E2	3.4342E2
4.4565E2	2.9791E2
4.4609E2	3.2294E2
4.4653E2	3.2521E2
4.4696E2	3.3887E2
4.474E2	3.3773E2
4.4783E2	3.0496E2
4.4827E2	3.1998E2
4.4871E2	3.0883E2
4.4914E2	3.1816E2
4.4958E2	3.5343E2
4.5002E2	3.2226E2
4.5045E2	3.5093E2
4.5089E2	3.1452E2
4.5132E2	3.2817E2
4.5176E2	3.0792E2
4.522E2	2.9996E2
4.5263E2	3.1657E2
4.5307E2	3.020E2
4.535E2	3.0997E2
4.5394E2	2.9199E2
4.5437E2	2.9131E2
4.5481E2	3.0246E2
4.5525E2	3.0428E2
4.5568E2	2.8812E2
4.5612E2	2.8835E2
4.5655E2	2.929E2
4.5699E2	3.020E2
4.5742E2	2.7697E2
4.5786E2	2.772E2
4.5829E2	2.8926E2
4.5873E2	2.4989E2
4.5917E2	2.6059E2
4.596E2	2.8016E2
4.6004E2	2.7697E2
4.6047E2	2.9017E2
4.6091E2	2.747E2
4.6134E2	2.8926E2
4.6178E2	2.9495E2
4.6221E2	2.7402E2
4.6265E2	2.904E2
4.6308E2	2.8243E2
4.6352E2	2.7219E2
4.6395E2	2.8858E2
4.6439E2	2.5103E2
4.6482E2	2.6378E2
4.6526E2	2.615E2
4.6569E2	2.7902E2
4.6613E2	2.747E2
4.6656E2	2.7697E2
4.670E2	2.7447E2
4.6743E2	2.8699E2
4.6787E2	2.8812E2
4.683E2	3.0542E2
4.6873E2	3.3136E2
4.6917E2	3.2226E2
4.696E2	3.2612E2
4.7004E2	3.3159E2
4.7047E2	3.2157E2
4.7091E2	3.3682E2
4.7134E2	3.6162E2
4.7177E2	3.6117E2
4.7221E2	3.5047E2
4.7264E2	3.8279E2
4.7308E2	3.730E2
4.7351E2	3.9098E2
4.7395E2	4.3125E2
4.7438E2	4.3854E2
4.7481E2	4.4923E2
4.7525E2	4.5469E2
4.7568E2	4.9292E2
4.7612E2	5.0134E2
4.7655E2	5.1841E2
4.7698E2	5.2978E2
4.7742E2	5.5846E2
4.7785E2	5.9896E2
4.7828E2	6.1716E2
4.7872E2	6.3764E2
4.7915E2	6.7792E2
4.7959E2	6.7997E2
4.8002E2	7.2889E2
4.8045E2	7.5643E2
4.8089E2	8.0649E2
4.8132E2	8.3015E2
4.8175E2	8.611E2
4.8219E2	9.2618E2
4.8262E2	9.4484E2
4.8305E2	10.152E2
4.8349E2	10.554E2
4.8392E2	11.203E2
4.8435E2	11.806E2
4.8479E2	11.899E2
4.8522E2	12.843E2
4.8565E2	13.704E2
4.8608E2	14.038E2
4.8652E2	14.862E2
4.8695E2	15.585E2
4.8738E2	16.386E2
4.8782E2	17.253E2
4.8825E2	18.184E2
4.8868E2	19.329E2
4.8911E2	20.448E2
4.8955E2	21.543E2
4.8998E2	22.681E2
4.9041E2	24.007E2
4.9084E2	25.634E2
4.9128E2	26.626E2
4.9171E2	28.331E2
4.9214E2	29.443E2
4.9257E2	31.628E2
4.9301E2	33.74E2
4.9344E2	35.835E2
4.9387E2	37.688E2
4.943E2	40.364E2
4.9474E2	42.273E2
4.9517E2	45.231E2
4.956E2	48.164E2
4.9603E2	50.927E2
4.9647E2	53.532E2
4.969E2	56.993E2
4.9733E2	60.937E2
4.9776E2	64.213E2
4.9819E2	66.616E2
4.9862E2	71.968E2
4.9906E2	76.865E2
4.9949E2	80.342E2
4.9992E2	85.492E2
5.0035E2	90.45E2
5.0078E2	94.705E2
5.0122E2	1.0164E4
5.0165E2	1.0781E4
5.0208E2	1.1334E4
5.0251E2	1.2053E4
5.0294E2	1.274E4
5.0337E2	1.3482E4
5.038E2	1.4248E4
5.0424E2	1.5036E4
5.0467E2	1.5775E4
5.051E2	1.6646E4
5.0553E2	1.7474E4
5.0596E2	1.8424E4
5.0639E2	1.9481E4
5.0682E2	2.0371E4
5.0725E2	2.1377E4
5.0769E2	2.2269E4
5.0812E2	2.3257E4
5.0855E2	2.4139E4
5.0898E2	2.5234E4
5.0941E2	2.6295E4
5.0984E2	2.7259E4
5.1027E2	2.8468E4
5.107E2	2.9338E4
5.1113E2	3.0398E4
5.1156E2	3.1542E4
5.1199E2	3.2406E4
5.1242E2	3.2935E4
5.1285E2	3.4304E4
5.1329E2	3.524E4
5.1372E2	3.6105E4
5.1415E2	3.6984E4
5.1458E2	3.7675E4
5.1501E2	3.8257E4
5.1544E2	3.9015E4
5.1587E2	3.9332E4
5.163E2	3.9673E4
5.1673E2	4.0529E4
5.1716E2	4.0584E4
5.1759E2	4.0868E4
5.1802E2	4.1272E4
5.1845E2	4.148E4
5.1888E2	4.1606E4
5.1931E2	4.1563E4
5.1974E2	4.1554E4
5.2017E2	4.1595E4
5.206E2	4.1543E4
5.2103E2	4.1667E4
5.2146E2	4.1224E4
5.2189E2	4.0992E4
5.2232E2	4.0649E4
5.2275E2	4.0297E4
5.2318E2	3.9645E4
5.2361E2	3.9083E4
5.2404E2	3.8555E4
5.2447E2	3.8148E4
5.2489E2	3.7536E4
5.2532E2	3.7065E4
5.2575E2	3.6117E4
5.2618E2	3.5635E4
5.2661E2	3.4595E4
5.2704E2	3.3815E4
5.2747E2	3.2969E4
5.279E2	3.2285E4
5.2833E2	3.1911E4
5.2876E2	3.1297E4
5.2919E2	3.0268E4
5.2962E2	2.9512E4
5.3004E2	2.8716E4
5.3047E2	2.8252E4
5.309E2	2.7343E4
5.3133E2	2.6493E4
5.3176E2	2.5628E4
5.3219E2	2.4985E4
5.3262E2	2.4366E4
5.3305E2	2.3773E4
5.3348E2	2.3173E4
5.339E2	2.2509E4
5.3433E2	2.2146E4
5.3476E2	2.1707E4
5.3519E2	2.1202E4
5.3562E2	2.0604E4
5.3605E2	2.0027E4
5.3647E2	1.9734E4
5.369E2	1.9129E4
5.3733E2	1.8516E4
5.3776E2	1.8155E4
5.3819E2	1.7726E4
5.3862E2	1.7259E4
5.3904E2	1.6888E4
5.3947E2	1.6521E4
5.399E2	1.6187E4
5.4033E2	1.5791E4
5.4076E2	1.5474E4
5.4118E2	1.5068E4
5.4161E2	1.4632E4
5.4204E2	1.4256E4
5.4247E2	1.381E4
5.4289E2	1.3494E4
5.4332E2	1.3147E4
5.4375E2	1.2886E4
5.4418E2	1.2477E4
5.4461E2	1.2079E4
5.4503E2	1.1757E4
5.4546E2	1.1543E4
5.4589E2	1.1269E4
5.4632E2	1.1043E4
5.4674E2	1.0696E4
5.4717E2	1.0291E4
5.476E2	1.0007E4
5.4802E2	96.191E2
5.4845E2	93.386E2
5.4888E2	91.829E2
5.4931E2	89.408E2
5.4973E2	87.064E2
5.5016E2	83.548E2
5.5059E2	80.397E2
5.5101E2	77.778E2
5.5144E2	74.954E2
5.5187E2	73.923E2
5.5229E2	70.305E2
5.5272E2	68.785E2
5.5315E2	66.826E2
5.5357E2	66.018E2
5.540E2	64.009E2
5.5443E2	62.684E2
5.5485E2	60.593E2
5.5528E2	58.825E2
5.5571E2	56.085E2
5.5613E2	54.19E2
5.5656E2	52.884E2
5.5699E2	51.766E2
5.5741E2	50.433E2
5.5784E2	48.578E2
5.5827E2	47.029E2
5.5869E2	45.347E2
5.5912E2	43.679E2
5.5954E2	42.664E2
5.5997E2	40.826E2
5.604E2	40.452E2
5.6082E2	38.725E2
5.6125E2	38.279E2
5.6167E2	37.239E2
5.621E2	36.09E2
5.6253E2	33.999E2
5.6295E2	33.501E2
5.6338E2	32.24E2
5.638E2	31.173E2
5.6423E2	30.056E2
5.6465E2	29.687E2
5.6508E2	28.567E2
5.6551E2	28.192E2
5.6593E2	27.191E2
5.6636E2	26.369E2
5.6678E2	25.479E2
5.6721E2	24.847E2
5.6763E2	23.964E2
5.6806E2	23.295E2
5.6848E2	22.715E2
5.6891E2	22.262E2
5.6933E2	21.333E2
5.6976E2	21.147E2
5.7018E2	20.937E2
5.7061E2	19.993E2
5.7103E2	19.515E2
5.7146E2	18.858E2
5.7188E2	18.261E2
5.7231E2	17.636E2
5.7273E2	17.356E2
5.7316E2	17.017E2
5.7358E2	16.457E2
5.7401E2	16.452E2
5.7443E2	16.173E2
5.7486E2	15.793E2
5.7528E2	15.051E2
5.7571E2	14.944E2
5.7613E2	14.418E2
5.7655E2	13.817E2
5.7698E2	13.731E2
5.774E2	13.251E2
5.7783E2	13.201E2
5.7825E2	12.429E2
5.7868E2	12.486E2
5.791E2	12.605E2
5.7952E2	11.883E2
5.7995E2	11.678E2
5.8037E2	11.355E2
5.808E2	11.135E2
5.8122E2	11.071E2
5.8164E2	11.073E2
5.8207E2	10.764E2
5.8249E2	10.686E2
5.8291E2	10.181E2
5.8334E2	9.8216E2
5.8376E2	10.099E2
5.8419E2	9.6759E2
5.8461E2	9.2891E2
5.8503E2	9.3483E2
5.8546E2	8.8568E2
5.8588E2	9.0616E2
5.863E2	9.0707E2
5.8673E2	8.5314E2
5.8715E2	8.5291E2
5.8757E2	8.4836E2
5.880E2	8.1331E2
5.8842E2	8.1422E2
5.8884E2	7.9921E2
5.8927E2	7.9306E2
5.8969E2	8.0216E2
5.9011E2	7.8146E2
5.9054E2	7.7008E2
5.9096E2	7.3822E2
5.9138E2	7.2411E2
5.918E2	7.3822E2
5.9223E2	7.1638E2
5.9265E2	7.1205E2
5.9307E2	6.720E2
5.9349E2	6.7155E2
5.9392E2	6.7223E2
5.9434E2	6.654E2
5.9476E2	6.4788E2
5.9519E2	6.5517E2
5.9561E2	6.4948E2
5.9603E2	6.2467E2
5.9645E2	6.2718E2
5.9687E2	6.1921E2
5.973E2	6.0442E2
5.9772E2	6.0829E2
5.9814E2	6.092E2
5.9856E2	5.9919E2
5.9899E2	5.8963E2
5.9941E2	5.9509E2
5.9983E2	5.778E2
6.0025E2	5.8667E2
6.0067E2	5.8872E2
6.011E2	5.8076E2
6.0152E2	5.5595E2
6.0194E2	5.6096E2
6.0236E2	5.5891E2
6.0278E2	5.5755E2
6.032E2	5.4549E2
6.0363E2	5.1522E2
6.0405E2	5.0817E2
6.0447E2	5.4002E2
6.0489E2	5.2227E2
6.0531E2	5.3502E2
6.0573E2	5.134E2
6.0615E2	5.4389E2
6.0658E2	4.8951E2
6.070E2	5.1226E2
6.0742E2	4.9747E2
6.0784E2	4.6584E2
6.0826E2	4.5651E2
6.0868E2	4.6698E2
6.091E2	4.465E2
6.0952E2	4.4718E2
6.0995E2	4.6311E2
6.1037E2	4.4081E2
6.1079E2	4.5287E2
6.1121E2	4.060E2
6.1163E2	4.2693E2
6.1205E2	4.0782E2
6.1247E2	3.9826E2
6.1289E2	4.1419E2
6.1331E2	4.2374E2
6.1373E2	4.0144E2
6.1415E2	3.8756E2
6.1457E2	3.7164E2
6.1499E2	3.730E2
6.1541E2	3.7095E2
6.1583E2	3.6071E2
6.1625E2	3.6799E2
6.1667E2	3.9917E2
6.1709E2	3.6208E2
6.1751E2	3.7073E2
6.1794E2	3.4251E2
6.1836E2	3.3432E2
6.1878E2	3.3955E2
6.192E2	3.3932E2
6.1962E2	3.2544E2
6.2003E2	3.4934E2
6.2045E2	3.3363E2
6.2087E2	3.2385E2
6.2129E2	3.2294E2
6.2171E2	3.1293E2
6.2213E2	3.1202E2
6.2255E2	3.0633E2
6.2297E2	3.0906E2
6.2339E2	3.1293E2
6.2381E2	2.863E2
6.2423E2	2.7879E2
6.2465E2	2.7606E2
6.2507E2	2.9108E2
6.2549E2	2.7379E2
6.2591E2	2.7379E2
6.2633E2	2.5991E2
6.2675E2	2.6378E2
6.2717E2	2.7037E2
6.2759E2	2.7128E2
6.280E2	2.6059E2
6.2842E2	2.574E2
6.2884E2	2.5604E2
6.2926E2	2.5558E2
6.2968E2	2.3806E2
6.301E2	2.4921E2
6.3052E2	2.3624E2
6.3094E2	2.2509E2
6.3135E2	2.5103E2
6.3177E2	2.169E2
6.3219E2	2.2873E2
6.3261E2	2.3465E2
6.3303E2	2.4261E2
6.3345E2	2.3055E2
6.3387E2	2.0074E2
6.3428E2	2.1827E2
6.347E2	2.1007E2
6.3512E2	2.062E2
6.3554E2	2.0097E2
6.3596E2	2.1007E2
6.3638E2	2.1918E2
6.3679E2	1.9505E2
6.3721E2	1.7253E2
6.3763E2	2.2168E2
6.3805E2	2.128E2
6.3847E2	2.0734E2
6.3888E2	1.9005E2
6.393E2	2.037E2
6.3972E2	1.9779E2
6.4014E2	1.8573E2
6.4055E2	1.7662E2
6.4097E2	1.9983E2
6.4139E2	1.6502E2
6.4181E2	1.6661E2
6.4222E2	1.4932E2
6.4264E2	1.6729E2
6.4306E2	1.8436E2
6.4348E2	1.8277E2
6.4389E2	1.8436E2
6.4431E2	1.5523E2
6.4473E2	1.5455E2
6.4515E2	1.541E2
6.4556E2	1.6251E2
6.4598E2	1.5819E2
6.464E2	1.657E2
6.4681E2	1.4408E2
6.4723E2	1.5091E2
6.4765E2	1.4295E2
6.4806E2	1.4044E2
6.4848E2	1.2952E2
6.489E2	1.3839E2
6.4931E2	1.2406E2
6.4973E2	1.3748E2
6.5015E2	1.2201E2
6.5056E2	1.1905E2
6.5098E2	1.252E2
6.514E2	1.3407E2
6.5181E2	1.0039E2
6.5223E2	1.2724E2
6.5265E2	1.1791E2
6.5306E2	1.3839E2
6.5348E2	1.3225E2
6.5389E2	1.277E2
6.5431E2	1.0449E2
6.5473E2	1.0267E2
6.5514E2	1.0813E2
6.5556E2	93.794E0
6.5597E2	1.0813E2
6.5639E2	85.375E0
6.5681E2	91.746E0
6.5722E2	1.0767E2
6.5764E2	99.028E0
6.5805E2	1.1154E2
6.5847E2	72.177E0
6.5889E2	79.686E0
6.593E2	82.644E0
6.5972E2	84.92E0
6.6013E2	91.519E0
6.6055E2	93.567E0
6.6096E2	83.099E0
6.6138E2	57.613E0
6.6179E2	66.488E0
6.6221E2	80.141E0
6.6262E2	84.237E0
6.6304E2	76.273E0
6.6345E2	77.183E0
6.6387E2	60.799E0
6.6428E2	69.446E0
6.647E2	60.116E0
6.6511E2	65.35E0
6.6553E2	61.254E0
6.6594E2	67.853E0
6.6636E2	64.667E0
6.6677E2	64.667E0
6.6719E2	47.146E0
6.676E2	56.703E0
6.6802E2	44.415E0
6.6843E2	45.781E0
6.6885E2	48.056E0
6.6926E2	49.649E0
6.6967E2	46.008E0
6.7009E2	51.697E0
6.705E2	36.679E0
6.7092E2	49.649E0
6.7133E2	51.242E0
6.7175E2	45.098E0
6.7216E2	59.889E0
6.7257E2	36.451E0
6.7299E2	33.038E0
6.734E2	45.326E0
6.7382E2	63.075E0
6.7423E2	47.829E0
6.7464E2	33.265E0
6.7506E2	39.637E0
6.7547E2	40.092E0
6.7588E2	56.248E0
6.763E2	48.284E0
6.7671E2	29.852E0
6.7713E2	23.253E0
6.7754E2	26.439E0
6.7795E2	26.211E0
6.7837E2	32.128E0
6.7878E2	37.361E0
6.7919E2	47.829E0
6.7961E2	9.5999E0
6.8002E2	39.182E0
6.8043E2	12.558E0
6.8085E2	56.703E0
6.8126E2	17.564E0
6.8167E2	20.067E0
6.8208E2	32.81E0
6.825E2	17.792E0
6.8291E2	34.175E0
6.8332E2	19.157E0
6.8374E2	25.528E0
6.8415E2	18.474E0
6.8456E2	-7.0114E0
6.8497E2	29.169E0
6.8539E2	5.5039E0
6.858E2	10.965E0
6.8621E2	5.0488E0
6.8662E2	27.349E0
6.8704E2	-6.3288E0
6.8745E2	-4.0533E0
6.8786E2	21.888E0
6.8827E2	28.487E0
6.8869E2	22.115E0
6.891E2	9.3723E0
6.8951E2	20.977E0
6.8992E2	11.42E0
6.9033E2	14.606E0
6.9075E2	21.205E0
6.9116E2	24.618E0
6.9157E2	31.217E0
6.9198E2	3.6835E0
6.9239E2	28.259E0
6.928E2	28.259E0
6.9322E2	12.33E0
6.9363E2	25.073E0
6.9404E2	19.84E0
6.9445E2	8.2345E0
6.9486E2	27.022E-2
6.9527E2	8.007E0
6.9568E2	15.516E0
6.961E2	-63.999E-2
6.9651E2	4.1386E0
6.9692E2	13.696E0
6.9733E2	-10.197E0
6.9774E2	26.211E0
6.9815E2	4.8213E0
6.9856E2	18.474E0
6.9897E2	21.433E0
6.9939E2	-17.479E0
6.998E2	19.84E0
7.0021E2	20.977E0
7.0062E2	2.3182E0
7.0103E2	-14.066E0
7.0144E2	-1.3226E0
7.0185E2	-8.6043E0
7.0226E2	10.965E0
7.0267E2	2.7733E0
7.0308E2	8.2345E0
7.0349E2	2.3182E0
7.039E2	14.378E0
7.0431E2	3.2284E0
7.0472E2	-5.191E0
7.0513E2	-1.7778E0
7.0554E2	18.702E0
7.0595E2	-8.3768E0
7.0636E2	5.959E0
7.0677E2	-13.838E0
7.0718E2	3.2284E0
7.0759E2	-4.9635E0
7.080E2	-1.7778E0
7.0841E2	-9.7421E0
7.0882E2	-21.575E0
7.0923E2	-5.4186E0
7.0964E2	8.9172E0
7.1005E2	-14.521E0
7.1046E2	-29.312E0
7.1087E2	-14.976E0
7.1128E2	14.834E0
7.1169E2	13.468E0
7.121E2	1.6355E0
7.1251E2	-1.0951E0
7.1292E2	-19.754E0
7.1333E2	-4.9635E0
7.1374E2	-22.485E0
7.1415E2	-8.8319E0
7.1455E2	-10.425E0
7.1496E2	-10.88E0
7.1537E2	-12.018E0
7.1578E2	-5.191E0
7.1619E2	1.1804E0
7.166E2	5.7315E0
7.1701E2	-6.5563E0
7.1742E2	14.151E0
7.1783E2	-25.671E0
7.1823E2	-12.245E0
7.1864E2	9.8274E0
7.1905E2	-17.706E0
7.1946E2	-32.725E0
7.1987E2	-3.3706E0
7.2028E2	-34.09E0
7.2069E2	-12.473E0
7.2109E2	-3.8257E0
7.215E2	-20.892E0
7.2191E2	-2.0053E0
7.2232E2	-24.078E0
7.2273E2	-17.706E0
7.2313E2	-3.3706E0
7.2354E2	-14.066E0
7.2395E2	-24.078E0
7.2436E2	-11.107E0
7.2477E2	-24.305E0
7.2517E2	-18.389E0
7.2558E2	-9.9696E0
7.2599E2	-16.796E0
7.264E2	-30.677E0
7.268E2	-12.245E0
7.2721E2	-14.066E0
7.2762E2	-20.665E0
7.2803E2	-21.347E0
7.2843E2	-23.623E0
7.2884E2	-20.437E0
7.2925E2	8.2345E0
7.2966E2	-6.1012E0
7.3006E2	7.0968E0
7.3047E2	-14.976E0
7.3088E2	-13.838E0
7.3129E2	10.51E0
7.3169E2	1.1804E0
7.321E2	22.57E0
7.3251E2	-27.264E0
7.3291E2	-29.994E0
7.3332E2	-12.018E0
7.3373E2	-2.2329E0
7.3413E2	-2.688E0
7.3454E2	-26.353E0
7.3495E2	-4.0533E0
7.3535E2	-17.024E0
7.3576E2	-20.665E0
7.3617E2	-21.347E0
7.3657E2	-13.155E0
7.3698E2	-4.5084E0
7.3738E2	-13.61E0
7.3779E2	-13.383E0
7.382E2	-27.719E0
7.386E2	-41.244E-2
7.3901E2	-25.671E0
7.3942E2	-27.719E0
7.3982E2	-21.802E0
7.4023E2	-2.9155E0
7.4063E2	-29.084E0
7.4104E2	-27.946E0
7.4145E2	-17.024E0
7.4185E2	-10.197E0
7.4226E2	-15.431E0
7.4266E2	-22.03E0
7.4307E2	-15.431E0
7.4347E2	-15.658E0
7.4388E2	-14.521E0
7.4428E2	-19.982E0
7.4469E2	-6.7839E0
7.4509E2	-29.767E0
7.455E2	-5.6461E0
7.4591E2	-24.988E0
7.4631E2	1.6355E0
7.4672E2	-21.12E0
7.4712E2	-24.305E0
7.4753E2	-13.383E0
7.4793E2	-37.731E0
7.4834E2	-8.3768E0
7.4874E2	-22.94E0
7.4915E2	-14.521E0
7.4955E2	-23.623E0
7.4995E2	-18.162E0
7.5036E2	-6.5563E0
7.5076E2	-15.431E0
7.5117E2	10.965E0
7.5157E2	-22.713E0
7.5198E2	-37.959E0
7.5238E2	-9.7421E0
7.5279E2	-26.353E0
7.5319E2	-15.886E0
7.5359E2	-33.863E0
7.540E2	-21.12E0
7.544E2	-10.88E0
7.5481E2	-8.1492E0
7.5521E2	-15.886E0
7.5562E2	-32.497E0
7.5602E2	-12.928E0
7.5642E2	-23.168E0
7.5683E2	-24.078E0
7.5723E2	-33.407E0
7.5763E2	-19.299E0
7.5804E2	-1.5502E0
7.5844E2	-18.844E0
7.5885E2	-9.5145E0
7.5925E2	-17.706E0
7.5965E2	-20.665E0
7.6006E2	-13.383E0
7.6046E2	-35.228E0
7.6086E2	-9.0594E0
7.6127E2	-27.036E0
7.6167E2	-23.168E0
7.6207E2	-31.815E0
7.6248E2	-21.347E0
7.6288E2	-23.623E0
7.6328E2	-39.779E0
7.6368E2	-8.8319E0
7.6409E2	-29.994E0
7.6449E2	-10.197E0
7.6489E2	-20.892E0
7.653E2	-17.706E0
7.657E2	-7.6941E0
7.661E2	-63.999E-2
7.665E2	-30.222E0
7.6691E2	-11.79E0
7.6731E2	-2.2329E0
7.6771E2	-24.988E0
7.6811E2	-15.886E0
7.6852E2	-2.688E0
7.6892E2	-22.713E0
7.6932E2	-12.245E0
7.6972E2	4.8213E0
7.7012E2	-24.078E0
7.7053E2	-39.779E0
7.7093E2	-17.251E0
7.7133E2	-13.838E0
7.7173E2	-16.114E0
7.7213E2	-29.767E0
7.7254E2	-14.976E0
7.7294E2	-11.335E0
7.7334E2	-29.084E0
7.7374E2	-10.197E0
7.7414E2	-7.0114E0
7.7454E2	-28.174E0
7.7495E2	-16.569E0
7.7535E2	-17.706E0
7.7575E2	-17.479E0
7.7615E2	-23.623E0
7.7655E2	-22.03E0
7.7695E2	-20.209E0
7.7735E2	-20.209E0
7.7775E2	-29.312E0
7.7816E2	-14.976E0
7.7856E2	-7.6941E0
7.7896E2	-24.761E0
7.7936E2	-21.347E0
7.7976E2	-63.999E-2
7.8016E2	-16.796E0
7.8056E2	-12.70E0
7.8096E2	-31.587E0
7.8136E2	-41.827E0
7.8176E2	-4.5084E0
7.8216E2	-27.036E0
7.8256E2	-24.305E0
7.8296E2	-14.293E0
7.8337E2	-17.479E0
7.8377E2	-26.808E0
7.8417E2	-25.216E0
7.8457E2	-18.617E0
7.8497E2	-19.982E0
7.8537E2	-9.287E0
7.8577E2	-43.875E0
7.8617E2	-23.395E0
7.8657E2	-36.138E0
7.8697E2	-13.155E0
7.8737E2	7.0968E0
7.8777E2	-40.462E0
7.8817E2	-6.1012E0
7.8857E2	-22.713E0
7.8896E2	-23.623E0
7.8936E2	-20.209E0
7.8976E2	-21.347E0
7.9016E2	-14.293E0
7.9056E2	-28.174E0
7.9096E2	-15.658E0
7.9136E2	-16.114E0
7.9176E2	-15.431E0
7.9216E2	-11.562E0
7.9256E2	-23.168E0
7.9296E2	-32.497E0
7.9336E2	-5.8737E0
7.9376E2	-12.018E0
7.9416E2	-36.821E0
7.9455E2	-16.114E0
7.9495E2	-16.569E0
7.9535E2	-45.923E0
7.9575E2	-32.042E0
7.9615E2	-18.162E0
7.9655E2	-10.425E0
7.9695E2	-26.353E0
7.9734E2	-5.191E0
7.9774E2	-15.431E0
7.9814E2	-36.366E0
7.9854E2	-22.94E0
7.9894E2	-23.623E0
7.9934E2	-27.264E0
7.9973E2	9.1447E0
8.0013E2	-18.162E0
8.0053E2	-22.03E0
8.0093E2	-13.383E0
8.0133E2	-39.324E0
8.0172E2	-35.911E0
8.0212E2	-19.982E0
8.0252E2	-26.353E0
8.0292E2	-14.521E0
8.0332E2	-8.8319E0
8.0371E2	-8.3768E0
8.0411E2	-10.425E0
8.0451E2	1.6355E0
8.0491E2	-14.293E0
8.053E2	-20.892E0
8.057E2	-14.521E0
8.061E2	-10.652E0
8.065E2	-24.761E0
8.0689E2	-10.652E0
8.0729E2	-10.652E0
8.0769E2	-17.479E0
8.0808E2	-3.5982E0
8.0848E2	-5.191E0
8.0888E2	-3.5982E0
8.0928E2	-9.0594E0
8.0967E2	-20.437E0
8.1007E2	-6.7839E0
8.1047E2	-21.12E0
8.1086E2	-37.276E0
8.1126E2	-17.934E0
8.1166E2	-18.162E0
8.1205E2	6.4141E0
8.1245E2	-37.959E0
8.1284E2	-34.09E0
8.1324E2	-22.257E0
8.1364E2	-41.372E0
8.1403E2	-24.305E0
8.1443E2	-22.257E0
8.1483E2	-9.287E0
8.1522E2	-23.395E0
8.1562E2	-19.527E0
8.1601E2	-21.347E0
8.1641E2	-26.353E0
8.1681E2	-25.671E0
8.172E2	-23.85E0
8.176E2	-25.671E0
8.1799E2	-19.754E0
8.1839E2	-29.539E0
8.1878E2	-21.575E0
8.1918E2	-12.245E0
8.1957E2	-63.999E-2
8.1997E2	-29.539E0
8.2037E2	-26.808E0
8.2076E2	-12.245E0
8.2116E2	-40.462E0
8.2155E2	-32.042E0
8.2195E2	-30.904E0
8.2234E2	-12.473E0
8.2274E2	-14.976E0
8.2313E2	-3.5982E0
8.2353E2	-38.869E0
8.2392E2	-7.239E0
8.2432E2	-12.018E0
8.2471E2	-31.587E0
8.2511E2	-17.706E0
8.255E2	-30.449E0
8.2589E2	-30.904E0
8.2629E2	-33.863E0
8.2668E2	-15.431E0
8.2708E2	-8.6043E0
8.2747E2	-38.186E0
8.2787E2	-21.12E0
8.2826E2	-9.9696E0
8.2866E2	-35.683E0
8.2905E2	-31.815E0
8.2944E2	-25.216E0
8.2984E2	-34.545E0
8.3023E2	-28.629E0
8.3063E2	-29.994E0
8.3102E2	-37.276E0
8.3141E2	-23.395E0
8.3181E2	-23.623E0
8.322E2	-27.264E0
8.3259E2	2.5457E0
8.3299E2	-27.946E0
8.3338E2	-25.898E0
8.3378E2	-25.216E0
8.3417E2	-22.713E0
8.3456E2	-9.0594E0
8.3496E2	-11.79E0
8.3535E2	14.606E0
8.3574E2	-24.305E0
8.3613E2	-40.917E0
8.3653E2	-20.665E0
8.3692E2	-24.305E0
8.3731E2	-10.652E0
8.3771E2	-14.976E0
8.381E2	-19.982E0
8.3849E2	-11.107E0
8.3889E2	-8.6043E0
8.3928E2	18.474E0
8.3967E2	-22.03E0
8.4006E2	-24.533E0
8.4046E2	-17.024E0
8.4085E2	-42.965E0
8.4124E2	-27.719E0
8.4163E2	-23.85E0
8.4203E2	-17.024E0
8.4242E2	-8.3768E0
8.4281E2	-35.911E0
8.432E2	-28.401E0
8.4359E2	-29.312E0
8.4399E2	-42.054E0
8.4438E2	-29.312E0
8.4477E2	-24.078E0
8.4516E2	-12.928E0
8.4555E2	-18.844E0
8.4595E2	-25.216E0
8.4634E2	-7.0114E0
8.4673E2	-2.688E0
8.4712E2	-26.581E0
8.4751E2	-23.168E0
8.479E2	-14.293E0
8.4829E2	-19.982E0
8.4869E2	-14.521E0
8.4908E2	-27.719E0
8.4947E2	-35.228E0
8.4986E2	-23.85E0
8.5025E2	-23.395E0
8.5064E2	-6.1012E0
8.5103E2	-30.222E0
8.5142E2	-16.796E0
8.5181E2	2.3182E0
8.5221E2	-31.815E0
8.526E2	-27.491E0
8.5299E2	-24.533E0
8.5338E2	-27.946E0
8.5377E2	-19.527E0
8.5416E2	-15.431E0
8.5455E2	-30.449E0
8.5494E2	-36.366E0
8.5533E2	-39.324E0
8.5572E2	-18.162E0
8.5611E2	-1.5502E0
8.565E2	-33.863E0
8.5689E2	-23.168E0
8.5728E2	-4.2808E0
8.5767E2	-29.994E0
8.5806E2	-32.27E0
8.5845E2	-13.838E0
8.5884E2	-35.455E0
8.5923E2	-25.216E0
8.5962E2	-17.934E0
8.6001E2	-28.174E0
8.604E2	-22.94E0
8.6079E2	-28.401E0
8.6118E2	-21.802E0
8.6157E2	-40.234E0
8.6196E2	-24.988E0
8.6235E2	-5.191E0
8.6274E2	-27.946E0
8.6313E2	-24.533E0
8.6352E2	-41.827E0
8.639E2	-13.155E0
8.6429E2	-22.713E0
8.6468E2	-35.911E0
8.6507E2	-26.808E0
8.6546E2	-30.677E0
8.6585E2	-24.078E0
8.6624E2	-21.575E0
8.6663E2	-41.827E0
8.6702E2	-23.168E0
8.674E2	-26.353E0
8.6779E2	-11.79E0
8.6818E2	-2.688E0
8.6857E2	-22.485E0
8.6896E2	-32.725E0
8.6935E2	-16.341E0
8.6973E2	-27.946E0
8.7012E2	-28.856E0
8.7051E2	-37.503E0
8.709E2	-43.647E0
8.7129E2	-23.623E0
8.7167E2	-19.299E0
8.7206E2	-24.533E0
8.7245E2	-27.036E0
8.7284E2	-28.401E0
8.7323E2	-9.9696E0
8.7361E2	-42.282E0
8.740E2	-15.203E0
8.7439E2	-24.533E0
8.7478E2	-24.305E0
8.7516E2	-26.808E0
8.7555E2	-23.395E0
8.7594E2	-21.575E0
8.7633E2	-17.251E0
8.7671E2	-19.982E0
8.771E2	-13.155E0
8.7749E2	-28.401E0
8.7787E2	-15.431E0
8.7826E2	-30.449E0
8.7865E2	-26.581E0
8.7904E2	-6.5563E0
8.7942E2	-29.312E0
8.7981E2	2.3182E0
8.802E2	-12.928E0
8.8058E2	-14.976E0
8.8097E2	-15.886E0
8.8136E2	-13.61E0
8.8174E2	-18.389E0
8.8213E2	-40.007E0
8.8252E2	-22.03E0
8.829E2	-27.946E0
8.8329E2	-17.024E0
8.8367E2	-9.9696E0
8.8406E2	-6.3288E0
8.8445E2	-29.767E0
8.8483E2	-32.952E0
8.8522E2	-34.545E0
8.856E2	-36.138E0
8.8599E2	-44.102E0
8.8638E2	-22.03E0
8.8676E2	-35.911E0
8.8715E2	-10.88E0
8.8753E2	-9.5145E0
8.8792E2	-21.575E0
8.883E2	-28.401E0
8.8869E2	-23.168E0
8.8907E2	-12.928E0
8.8946E2	-28.856E0
8.8984E2	-29.994E0
8.9023E2	-31.815E0
8.9062E2	-44.102E0
8.910E2	-15.431E0
8.9139E2	-22.94E0
8.9177E2	-33.635E0
8.9216E2	-27.491E0
8.9254E2	-15.658E0
8.9292E2	-22.03E0
8.9331E2	-86.754E-2
8.9369E2	-22.257E0
8.9408E2	-28.401E0
8.9446E2	-14.066E0
8.9485E2	-25.443E0
8.9523E2	-27.036E0
8.9562E2	-22.485E0
8.960E2	-13.383E0
8.9639E2	-50.019E0
8.9677E2	-23.623E0
8.9715E2	-32.725E0
8.9754E2	-20.665E0
8.9792E2	-27.264E0
8.9831E2	-27.491E0
8.9869E2	-21.575E0
8.9907E2	-26.808E0
8.9946E2	-20.665E0
8.9984E2	-16.796E0
9.0022E2	-12.473E0
9.0061E2	-27.491E0
9.0099E2	-15.886E0
9.0138E2	-31.815E0
9.0176E2	-14.293E0
9.0214E2	-12.245E0
9.0253E2	-32.952E0
9.0291E2	-21.802E0
9.0329E2	-10.652E0
9.0368E2	-20.209E0
9.0406E2	-30.677E0
9.0444E2	-30.449E0
9.0482E2	-11.107E0
9.0521E2	-15.431E0
9.0559E2	-22.03E0
9.0597E2	-32.27E0
9.0636E2	-17.706E0
9.0674E2	-21.802E0
9.0712E2	-31.587E0
9.075E2	-38.186E0
9.0789E2	-28.629E0
9.0827E2	-25.443E0
9.0865E2	-28.401E0
9.0903E2	-36.366E0
9.0941E2	-29.084E0
9.098E2	-23.623E0
9.1018E2	-24.078E0
9.1056E2	-13.838E0
9.1094E2	-2.4604E0
9.1133E2	-19.299E0
9.1171E2	-19.754E0
9.1209E2	-21.12E0
9.1247E2	-12.928E0
9.1285E2	-2.0053E0
9.1323E2	-34.545E0
9.1362E2	-19.527E0
9.140E2	-24.988E0
9.1438E2	-31.132E0
9.1476E2	-16.796E0
9.1514E2	-23.85E0
9.1552E2	-11.562E0
9.159E2	-45.695E0
9.1629E2	-34.545E0
9.1667E2	-9.7421E0
9.1705E2	-21.12E0
9.1743E2	-10.425E0
9.1781E2	-27.946E0
9.1819E2	-21.802E0
9.1857E2	8.4621E0
9.1895E2	-20.209E0
9.1933E2	-32.725E0
9.1971E2	-57.528E0
9.2009E2	-3.5982E0
9.2047E2	-16.114E0
9.2085E2	-19.072E0
9.2123E2	-24.078E0
9.2162E2	-18.844E0
9.220E2	-17.024E0
9.2238E2	-25.216E0
9.2276E2	-27.946E0
9.2314E2	-26.353E0
9.2352E2	-29.994E0
9.239E2	-36.138E0
9.2428E2	-32.042E0
9.2466E2	-27.719E0
9.2504E2	-39.779E0
9.2542E2	-32.27E0
9.2579E2	-23.623E0
9.2617E2	-29.994E0
9.2655E2	-24.078E0
9.2693E2	-20.437E0
9.2731E2	-15.658E0
9.2769E2	-14.521E0
9.2807E2	-18.844E0
9.2845E2	-4.5084E0
9.2883E2	-30.677E0
9.2921E2	-15.886E0
9.2959E2	-4.7359E0
9.2997E2	-3.5982E0
9.3035E2	-28.401E0
9.3072E2	-46.378E0
9.311E2	-5.4186E0
9.3148E2	-6.1012E0
9.3186E2	-21.347E0
9.3224E2	-17.479E0
9.3262E2	-22.257E0
9.330E2	-25.443E0
9.3338E2	-16.569E0
9.3375E2	-24.305E0
9.3413E2	-16.569E0
9.3451E2	-24.078E0
9.3489E2	-24.078E0
9.3527E2	-42.737E0
9.3564E2	-32.042E0
9.3602E2	-24.305E0
9.364E2	-2.4604E0
9.3678E2	-36.593E0
9.3716E2	-12.473E0
9.3753E2	-21.802E0
9.3791E2	-18.844E0
9.3829E2	-22.94E0
9.3867E2	-12.245E0
9.3904E2	-22.713E0
9.3942E2	-9.0594E0
9.398E2	-12.245E0
9.4018E2	-25.671E0
9.4055E2	-32.952E0
9.4093E2	-27.036E0
9.4131E2	-14.293E0
9.4169E2	-11.107E0
9.4206E2	-21.802E0
9.4244E2	-16.569E0
9.4282E2	-39.324E0
9.4319E2	-14.976E0
9.4357E2	-20.437E0
9.4395E2	-12.245E0
9.4432E2	-22.257E0
9.447E2	-19.982E0
9.4508E2	-18.162E0
9.4545E2	-8.3768E0
9.4583E2	-29.767E0
9.4621E2	-20.209E0
9.4658E2	-20.209E0
9.4696E2	-1.0951E0
9.4733E2	-19.527E0
9.4771E2	-19.982E0
9.4809E2	-14.748E0
9.4846E2	-21.12E0
9.4884E2	-9.287E0
9.4921E2	-23.623E0
9.4959E2	-25.671E0
9.4997E2	-17.934E0
9.5034E2	-27.946E0
9.5072E2	-9.0594E0
9.5109E2	-35.911E0
9.5147E2	-21.802E0
9.5184E2	-25.898E0
9.5222E2	-19.527E0
9.5259E2	-27.719E0
9.5297E2	-33.635E0
9.5335E2	-39.324E0
9.5372E2	-22.94E0
9.541E2	-25.671E0
9.5447E2	-37.048E0
9.5485E2	-17.251E0
9.5522E2	-36.366E0
9.556E2	-26.808E0
9.5597E2	-24.078E0
9.5634E2	-6.7839E0
9.5672E2	-24.078E0
9.5709E2	-35.455E0
9.5747E2	-35.228E0
9.5784E2	-8.1492E0
9.5822E2	-30.222E0
9.5859E2	-9.7421E0
9.5897E2	-42.965E0
9.5934E2	-29.312E0
9.5971E2	-35.911E0
9.6009E2	-18.162E0
9.6046E2	-47.971E0
9.6084E2	-20.892E0
9.6121E2	-33.18E0
9.6158E2	-39.096E0
9.6196E2	-14.293E0
9.6233E2	-19.527E0
9.6271E2	-39.779E0
9.6308E2	-13.61E0
9.6345E2	-22.03E0
9.6383E2	-22.713E0
9.642E2	-35.911E0
9.6457E2	-17.251E0
9.6495E2	-21.12E0
9.6532E2	-34.773E0
9.6569E2	-34.09E0
9.6607E2	-26.581E0
9.6644E2	-17.706E0
9.6681E2	-17.251E0
9.6718E2	-10.88E0
9.6756E2	-20.209E0
9.6793E2	-41.372E0
9.683E2	-16.341E0
9.6867E2	-40.689E0
9.6905E2	-21.575E0
9.6942E2	-40.917E0
9.6979E2	-38.414E0
9.7016E2	-30.677E0
9.7054E2	-42.282E0
9.7091E2	-22.257E0
9.7128E2	-13.155E0
9.7165E2	-42.965E0
9.7203E2	-21.347E0
9.724E2	-16.796E0
9.7277E2	-23.395E0
9.7314E2	-9.7421E0
9.7351E2	-19.072E0
9.7389E2	-6.5563E0
9.7426E2	-21.347E0
9.7463E2	-48.653E0
9.750E2	-15.886E0
9.7537E2	-49.109E0
9.7574E2	-3.8257E0
9.7611E2	-42.51E0
9.7649E2	-33.18E0
9.7686E2	-11.107E0
9.7723E2	-38.869E0
9.776E2	-16.341E0
9.7797E2	-28.174E0
9.7834E2	4.6288E2
9.7871E2	-6.7839E0
9.7908E2	-15.886E0
9.7945E2	-12.018E0
9.7982E2	-14.521E0
9.802E2	-18.389E0
9.8057E2	-3.5982E0
9.8094E2	-23.168E0
9.8131E2	-35.455E0
9.8168E2	-22.94E0
9.8205E2	-27.264E0
9.8242E2	-10.88E0
9.8279E2	-9.0594E0
9.8316E2	-20.892E0
9.8353E2	-40.234E0
9.839E2	-29.539E0
9.8427E2	-34.09E0
9.8464E2	-44.33E0
9.8501E2	-34.773E0
9.8538E2	-38.641E0
9.8575E2	-19.299E0
9.8612E2	-23.623E0
9.8649E2	-37.048E0
9.8686E2	-37.503E0
9.8723E2	-31.132E0
9.876E2	-32.725E0
9.8796E2	-29.539E0
9.8833E2	-32.725E0
9.887E2	-35.455E0
9.8907E2	-32.952E0
9.8944E2	-31.587E0
9.8981E2	-28.629E0
9.9018E2	-24.761E0
9.9055E2	-32.497E0
9.9092E2	-20.892E0
9.9129E2	-16.569E0
9.9165E2	-7.0114E0
9.9202E2	-19.982E0
9.9239E2	-34.773E0
9.9276E2	-31.132E0
9.9313E2	-39.551E0
9.935E2	-36.821E0
9.9387E2	-36.821E0
9.9423E2	-38.869E0
9.946E2	-30.677E0
9.9497E2	-42.737E0
9.9534E2	-35.911E0
9.9571E2	-49.791E0
9.9607E2	-18.617E0
9.9644E2	-12.70E0
9.9681E2	-47.516E0
9.9718E2	-19.299E0
9.9755E2	-7.9217E0
9.9791E2	-4.7359E0
9.9828E2	-13.155E0
9.9865E2	-10.88E0
9.9902E2	-38.869E0
9.9938E2	-22.94E0
9.9975E2	-43.647E0
10.001E2	-26.353E0
10.005E2	-10.88E0
10.009E2	-21.575E0
10.012E2	-24.761E0
10.016E2	-30.222E0
10.02E2	-29.312E0
10.023E2	-27.719E0
10.027E2	-26.581E0
10.031E2	-10.88E0
10.034E2	-18.617E0
10.038E2	-37.959E0
10.042E2	-30.222E0
10.045E2	-45.468E0
10.049E2	-21.347E0
10.053E2	-21.575E0
10.056E2	-37.959E0
10.06E2	-28.174E0
10.064E2	-45.013E0
10.067E2	-42.51E0
10.071E2	-9.5145E0
10.074E2	-12.245E0
10.078E2	-27.264E0
10.082E2	-17.024E0
10.085E2	-40.234E0
10.089E2	-41.144E0
10.093E2	-12.473E0
10.096E2	-14.521E0
10.10E2	-32.725E0
10.104E2	-24.078E0
10.107E2	-4.5084E0
10.111E2	-33.18E0
10.115E2	-23.85E0
10.118E2	-8.8319E0
10.122E2	-37.276E0
10.126E2	-38.186E0
10.129E2	-12.70E0
10.133E2	-15.431E0
10.137E2	-21.347E0
10.14E2	-19.299E0
10.144E2	-31.587E0
10.148E2	-15.886E0
10.151E2	-15.203E0
10.155E2	-9.7421E0
10.158E2	-16.114E0
10.162E2	-19.299E0
10.166E2	-25.671E0
10.169E2	-12.018E0
10.173E2	-11.79E0
10.177E2	-22.257E0
10.18E2	-23.85E0
10.184E2	-23.85E0
10.188E2	-32.497E0
10.191E2	27.022E-2
10.195E2	-35.00E0
10.199E2	-20.437E0
10.202E2	-21.575E0
10.206E2	-33.863E0
10.209E2	-5.8737E0
10.213E2	-31.815E0
10.217E2	-36.366E0
10.22E2	-31.815E0
10.224E2	-24.761E0
10.228E2	-37.276E0
10.231E2	-23.168E0
10.235E2	-17.706E0
10.238E2	-11.79E0
10.242E2	-10.652E0
10.246E2	-29.084E0
10.249E2	-16.569E0
10.253E2	-45.923E0
10.257E2	-22.257E0
10.26E2	-20.209E0
10.264E2	-24.078E0
10.267E2	-35.911E0
10.271E2	-29.994E0
10.275E2	-32.27E0
10.278E2	-21.575E0
10.282E2	-18.844E0
10.286E2	-28.174E0
10.289E2	-19.982E0
10.293E2	-18.844E0
10.296E2	-24.078E0
10.30E2	-34.318E0
10.304E2	-24.988E0
10.307E2	-26.581E0
10.311E2	-25.671E0
10.315E2	-27.946E0
10.318E2	-20.437E0
10.322E2	-21.12E0
10.325E2	-17.706E0
10.329E2	-22.257E0
10.333E2	-26.808E0
10.336E2	-39.324E0
10.34E2	-21.347E0
10.343E2	-21.802E0
10.347E2	-11.562E0
10.351E2	-45.468E0
10.354E2	-19.754E0
10.358E2	-44.558E0
10.362E2	-40.917E0
10.365E2	-28.629E0
10.369E2	-38.414E0
10.372E2	-45.013E0
10.376E2	-57.983E0
10.38E2	-29.994E0
