Data from JAZA26501_14-33-29-609.txt Node
Date: Sun Sep 29 14:33:29 ADT 2013
User: oceanview
Spectrometer:  JAZA2650
Trigger mode: 0
Integration Time (sec): 1.000000E-1
Scans to average: 10
Electric dark correction enabled: true
Nonlinearity correction enabled: false
Boxcar width: 0
XAxis mode: Wavelengths
Number of Pixels in Spectrum: 2048
>>>>>Begin Spectral Data<<<<<
1.897E2	-27.861E0
1.9015E2	-27.861E0
1.9061E2	-27.861E0
1.9106E2	-18.076E0
1.9151E2	-12.387E0
1.9197E2	20.38E0
1.9242E2	1.7209E0
1.9288E2	10.14E0
1.9333E2	2.4035E0
1.9378E2	13.554E0
1.9424E2	-12.842E0
1.9469E2	6.9546E0
1.9515E2	16.057E0
1.956E2	2.6311E0
1.9605E2	-2.8302E0
1.9651E2	-3.0577E0
1.9696E2	-14.208E0
1.9742E2	17.422E0
1.9787E2	-1.4649E0
1.9832E2	-3.2853E0
1.9878E2	-7.6088E0
1.9923E2	-20.124E0
1.9968E2	-15.346E0
2.0014E2	-6.2435E0
2.0059E2	-13.753E0
2.0104E2	-12.842E0
2.015E2	-10.339E0
2.0195E2	-6.6986E0
2.0241E2	4.2239E0
2.0286E2	-12.387E0
2.0331E2	-1.6924E0
2.0377E2	-23.765E0
2.0422E2	-8.0639E0
2.0467E2	-11.022E0
2.0513E2	-9.4292E0
2.0558E2	-25.585E0
2.0603E2	-27.178E0
2.0649E2	-23.765E0
2.0694E2	-15.118E0
2.0739E2	-34.005E0
2.0785E2	-3.5128E0
2.083E2	-7.6088E0
2.0875E2	-52.892E0
2.0921E2	-17.166E0
2.0966E2	-10.567E0
2.1011E2	-3.9679E0
2.1056E2	-10.112E0
2.1102E2	-35.598E0
2.1147E2	-13.298E0
2.1192E2	-1.4649E0
2.1238E2	-27.406E0
2.1283E2	-24.903E0
2.1328E2	-2.6026E0
2.1374E2	-28.316E0
2.1419E2	-9.8843E0
2.1464E2	-22.40E0
2.1509E2	-56.532E0
2.1555E2	-20.579E0
2.160E2	-4.423E0
2.1645E2	-26.268E0
2.169E2	-21.945E0
2.1736E2	-8.7465E0
2.1781E2	-26.951E0
2.1826E2	-12.16E0
2.1872E2	-27.178E0
2.1917E2	-34.232E0
2.1962E2	15.602E0
2.2007E2	3.7688E0
2.2053E2	-13.298E0
2.2098E2	-55.466E-2
2.2143E2	-9.2016E0
2.2188E2	-22.627E0
2.2234E2	-17.621E0
2.2279E2	-6.6986E0
2.2324E2	-7.3812E0
2.2369E2	-20.124E0
2.2414E2	-13.98E0
2.246E2	-40.604E0
2.2505E2	-10.795E0
2.255E2	-13.525E0
2.2595E2	1.4933E0
2.2641E2	-14.208E0
2.2686E2	-26.951E0
2.2731E2	15.146E0
2.2776E2	5.5892E0
2.2821E2	-6.471E0
2.2867E2	-34.232E0
2.2912E2	13.098E0
2.2957E2	-23.537E0
2.3002E2	-15.801E0
2.3047E2	-20.352E0
2.3093E2	-24.903E0
2.3138E2	-11.25E0
2.3183E2	-13.298E0
2.3228E2	-15.346E0
2.3273E2	-24.448E0
2.3318E2	4.679E0
2.3364E2	-31.047E0
2.3409E2	-23.993E0
2.3454E2	-22.172E0
2.3499E2	-12.615E0
2.3544E2	-25.13E0
2.3589E2	-15.573E0
2.3635E2	-4.6506E0
2.368E2	-4.6506E0
2.3725E2	-9.6567E0
2.377E2	-7.6088E0
2.3815E2	-11.25E0
2.386E2	-27.861E0
2.3905E2	-10.112E0
2.3951E2	-25.13E0
2.3996E2	-15.346E0
2.4041E2	-32.412E0
2.4086E2	-17.621E0
2.4131E2	-17.621E0
2.4176E2	-10.112E0
2.4221E2	-20.124E0
2.4266E2	4.4515E0
2.4312E2	-10.339E0
2.4357E2	-32.184E0
2.4402E2	-7.8363E0
2.4447E2	-16.028E0
2.4492E2	-9.8843E0
2.4537E2	-8.9741E0
2.4582E2	-19.441E0
2.4627E2	6.0444E0
2.4672E2	-6.0159E0
2.4717E2	-27.406E0
2.4763E2	-35.143E0
2.4808E2	-15.346E0
2.4853E2	-6.471E0
2.4898E2	-18.986E0
2.4943E2	-23.993E0
2.4988E2	-18.759E0
2.5033E2	-11.022E0
2.5078E2	-14.208E0
2.5123E2	-9.9554E-2
2.5168E2	-29.909E0
2.5213E2	-8.9741E0
2.5258E2	-29.681E0
2.5303E2	-16.256E0
2.5348E2	-16.483E0
2.5393E2	-3.9679E0
2.5438E2	-21.945E0
2.5484E2	-19.441E0
2.5529E2	-7.3812E0
2.5574E2	-33.095E0
2.5619E2	-13.525E0
2.5664E2	-17.621E0
2.5709E2	-36.28E0
2.5754E2	-18.986E0
2.5799E2	-6.471E0
2.5844E2	-1.2373E0
2.5889E2	-6.2435E0
2.5934E2	-24.448E0
2.5979E2	-2.6026E0
2.6024E2	-31.729E0
2.6069E2	-12.615E0
2.6114E2	-78.221E-2
2.6159E2	1.2658E0
2.6204E2	1.7209E0
2.6249E2	2.176E0
2.6294E2	-27.406E0
2.6339E2	-16.711E0
2.6384E2	-14.663E0
2.6429E2	-22.627E0
2.6474E2	-29.226E0
2.6519E2	-34.005E0
2.6564E2	6.0444E0
2.6609E2	-28.088E0
2.6654E2	-13.753E0
2.6699E2	-18.531E0
2.6744E2	-12.16E0
2.6789E2	-12.16E0
2.6833E2	-20.579E0
2.6878E2	-10.339E0
2.6923E2	6.2719E0
2.6968E2	-10.795E0
2.7013E2	-12.842E0
2.7058E2	-8.9741E0
2.7103E2	-14.663E0
2.7148E2	-2.8302E0
2.7193E2	-17.849E0
2.7238E2	-18.759E0
2.7283E2	-14.208E0
2.7328E2	-9.6567E0
2.7373E2	-25.358E0
2.7418E2	-23.082E0
2.7463E2	-1.4649E0
2.7507E2	-18.986E0
2.7552E2	-13.753E0
2.7597E2	-13.753E0
2.7642E2	-14.435E0
2.7687E2	1.7209E0
2.7732E2	-17.394E0
2.7777E2	-3.0577E0
2.7822E2	-24.675E0
2.7867E2	-3.2853E0
2.7912E2	-22.172E0
2.7956E2	-15.801E0
2.8001E2	-5.1057E0
2.8046E2	-11.705E0
2.8091E2	-6.2435E0
2.8136E2	58.31E-2
2.8181E2	-6.471E0
2.8226E2	16.284E0
2.8271E2	-15.346E0
2.8315E2	-19.897E0
2.836E2	-13.525E0
2.8405E2	-14.663E0
2.845E2	-16.483E0
2.8495E2	-4.8781E0
2.854E2	1.0382E0
2.8585E2	-31.047E0
2.8629E2	-12.615E0
2.8674E2	-29.454E0
2.8719E2	-10.795E0
2.8764E2	-20.352E0
2.8809E2	-19.897E0
2.8854E2	-6.6986E0
2.8898E2	-42.424E0
2.8943E2	-26.268E0
2.8988E2	-18.531E0
2.9033E2	-25.358E0
2.9078E2	-7.3812E0
2.9122E2	-7.1537E0
2.9167E2	-2.3751E0
2.9212E2	-10.339E0
2.9257E2	-18.304E0
2.9302E2	-26.723E0
2.9346E2	-2.8302E0
2.9391E2	-14.435E0
2.9436E2	-3.2853E0
2.9481E2	-14.663E0
2.9526E2	-8.519E0
2.957E2	35.555E-2
2.9615E2	-24.675E0
2.966E2	-15.346E0
2.9705E2	-21.489E0
2.9749E2	-8.7465E0
2.9794E2	-3.9679E0
2.9839E2	-40.149E0
2.9884E2	-31.502E0
2.9928E2	-8.7465E0
2.9973E2	-12.387E0
3.0018E2	-9.6567E0
3.0063E2	3.7688E0
3.0107E2	2.8586E0
3.0152E2	3.9964E0
3.0197E2	-12.615E0
3.0242E2	-2.3751E0
3.0286E2	3.5413E0
3.0331E2	-19.214E0
3.0376E2	-17.394E0
3.0421E2	-8.9741E0
3.0465E2	-10.795E0
3.051E2	-4.6506E0
3.0555E2	-19.669E0
3.0599E2	-23.765E0
3.0644E2	-1.0098E0
3.0689E2	-12.615E0
3.0734E2	-78.221E-2
3.0778E2	-13.98E0
3.0823E2	-11.705E0
3.0868E2	-3.2853E0
3.0912E2	-14.435E0
3.0957E2	-12.615E0
3.1002E2	-17.849E0
3.1046E2	-15.573E0
3.1091E2	-1.4649E0
3.1136E2	6.0444E0
3.118E2	1.7209E0
3.1225E2	-19.214E0
3.127E2	-14.89E0
3.1314E2	-42.424E0
3.1359E2	-25.358E0
3.1404E2	-9.6567E0
3.1448E2	-12.842E0
3.1493E2	-11.932E0
3.1538E2	-1.920E0
3.1582E2	35.854E0
3.1627E2	-8.2914E0
3.1672E2	-10.795E0
3.1716E2	-3.9679E0
3.1761E2	-4.423E0
3.1805E2	-5.1057E0
3.185E2	-3.7404E0
3.1895E2	-17.849E0
3.1939E2	-2.3751E0
3.1984E2	-20.352E0
3.2029E2	1.7209E0
3.2073E2	12.871E0
3.2118E2	-6.6986E0
3.2162E2	-5.5608E0
3.2207E2	-26.723E0
3.2252E2	-16.483E0
3.2296E2	-3.9679E0
3.2341E2	-12.615E0
3.2385E2	-3.9679E0
3.243E2	-5.3333E0
3.2474E2	-20.807E0
3.2519E2	-13.753E0
3.2564E2	-3.0577E0
3.2608E2	-24.22E0
3.2653E2	5.8168E0
3.2697E2	-21.945E0
3.2742E2	-8.0639E0
3.2786E2	-16.938E0
3.2831E2	-24.903E0
3.2876E2	-16.938E0
3.292E2	3.5413E0
3.2965E2	-12.842E0
3.3009E2	-21.034E0
3.3054E2	-1.0098E0
3.3098E2	-1.920E0
3.3143E2	-22.40E0
3.3187E2	19.015E0
3.3232E2	-17.849E0
3.3276E2	-1.4649E0
3.3321E2	-9.6567E0
3.3365E2	13.326E0
3.341E2	-9.6567E0
3.3454E2	-1.920E0
3.3499E2	-24.903E0
3.3543E2	-21.717E0
3.3588E2	-22.172E0
3.3632E2	15.602E0
3.3677E2	1.7209E0
3.3721E2	6.2719E0
3.3766E2	-21.717E0
3.381E2	81.065E-2
3.3855E2	9.6852E0
3.3899E2	-15.118E0
3.3944E2	-8.9741E0
3.3988E2	6.9546E0
3.4033E2	-2.8302E0
3.4077E2	-19.897E0
3.4122E2	1.7209E0
3.4166E2	-8.519E0
3.4211E2	23.111E0
3.4255E2	35.555E-2
3.430E2	6.9546E0
3.4344E2	-7.8363E0
3.4388E2	14.236E0
3.4433E2	21.29E0
3.4477E2	-4.6506E0
3.4522E2	3.9964E0
3.4566E2	12.871E0
3.4611E2	-78.221E-2
3.4655E2	12.80E-2
3.470E2	12.643E0
3.4744E2	4.679E0
3.4788E2	7.6372E0
3.4833E2	-7.8363E0
3.4877E2	-5.5608E0
3.4922E2	10.368E0
3.4966E2	9.0025E0
3.501E2	-2.8302E0
3.5055E2	15.602E0
3.5099E2	6.0444E0
3.5144E2	-1.4649E0
3.5188E2	16.284E0
3.5232E2	-2.6026E0
3.5277E2	5.3617E0
3.5321E2	-5.5608E0
3.5365E2	5.1341E0
3.541E2	-3.5128E0
3.5454E2	-9.6567E0
3.5499E2	-9.8843E0
3.5543E2	-11.25E0
3.5587E2	-1.0098E0
3.5632E2	7.1821E0
3.5676E2	10.823E0
3.572E2	1.9484E0
3.5765E2	4.679E0
3.5809E2	-5.7884E0
3.5853E2	-3.5128E0
3.5898E2	-9.4292E0
3.5942E2	-2.1475E0
3.5986E2	16.512E0
3.6031E2	17.877E0
3.6075E2	6.9546E0
3.6119E2	27.889E0
3.6164E2	-7.6088E0
3.6208E2	-2.1475E0
3.6252E2	5.5892E0
3.6297E2	1.9484E0
3.6341E2	21.973E0
3.6385E2	3.0862E0
3.6429E2	19.47E0
3.6474E2	35.555E-2
3.6518E2	8.0923E0
3.6562E2	16.284E0
3.6607E2	20.38E0
3.6651E2	-6.0159E0
3.6695E2	11.961E0
3.6739E2	7.8648E0
3.6784E2	-2.8302E0
3.6828E2	-12.16E0
3.6872E2	27.434E0
3.6916E2	-1.6924E0
3.6961E2	17.877E0
3.7005E2	15.829E0
3.7049E2	22.656E0
3.7093E2	11.506E0
3.7138E2	7.1821E0
3.7182E2	15.602E0
3.7226E2	15.374E0
3.727E2	9.6852E0
3.7315E2	-9.9554E-2
3.7359E2	4.9066E0
3.7403E2	6.2719E0
3.7447E2	1.2658E0
3.7492E2	19.015E0
3.7536E2	16.967E0
3.758E2	25.386E0
3.7624E2	7.4097E0
3.7668E2	26.069E0
3.7713E2	30.165E0
3.7757E2	18.56E0
3.7801E2	35.555E-2
3.7845E2	24.704E0
3.7889E2	13.326E0
3.7934E2	30.62E0
3.7978E2	16.512E0
3.8022E2	14.919E0
3.8066E2	10.14E0
3.811E2	16.967E0
3.8154E2	29.937E0
3.8199E2	11.506E0
3.8243E2	26.524E0
3.8287E2	40.86E0
3.8331E2	30.62E0
3.8375E2	41.77E0
3.8419E2	34.033E0
3.8463E2	27.434E0
3.8508E2	21.063E0
3.8552E2	27.889E0
3.8596E2	23.111E0
3.864E2	26.752E0
3.8684E2	36.081E0
3.8728E2	14.464E0
3.8772E2	21.745E0
3.8816E2	35.171E0
3.8861E2	25.841E0
3.8905E2	24.249E0
3.8949E2	41.315E0
3.8993E2	31.075E0
3.9037E2	58.154E0
3.9081E2	47.914E0
3.9125E2	33.123E0
3.9169E2	50.872E0
3.9213E2	34.943E0
3.9257E2	62.25E0
3.9301E2	33.351E0
3.9346E2	47.459E0
3.939E2	58.609E0
3.9434E2	39.267E0
3.9478E2	40.86E0
3.9522E2	60.657E0
3.9566E2	69.986E0
3.961E2	59.292E0
3.9654E2	63.16E0
3.9698E2	1.1049E2
3.9742E2	81.592E0
3.9786E2	68.166E0
3.983E2	78.861E0
3.9874E2	1.023E2
3.9918E2	1.0116E2
3.9962E2	1.0207E2
4.0006E2	1.1937E2
4.005E2	1.2619E2
4.0094E2	1.4076E2
4.0138E2	1.5236E2
4.0182E2	1.5555E2
4.0226E2	1.7671E2
4.027E2	1.7466E2
4.0314E2	2.0265E2
4.0358E2	2.295E2
4.0402E2	2.2882E2
4.0446E2	2.6318E2
4.049E2	2.8252E2
4.0534E2	3.0459E2
4.0578E2	3.3668E2
4.0622E2	3.6535E2
4.0666E2	3.9061E2
4.071E2	4.4226E2
4.0754E2	4.5478E2
4.0798E2	5.1667E2
4.0842E2	5.2759E2
4.0886E2	5.8607E2
4.093E2	6.1884E2
4.0974E2	6.6913E2
4.1018E2	7.2556E2
4.1062E2	8.2523E2
4.1106E2	8.960E2
4.115E2	9.5994E2
4.1194E2	10.482E2
4.1237E2	10.869E2
4.1281E2	11.725E2
4.1325E2	12.701E2
4.1369E2	13.684E2
4.1413E2	14.633E2
4.1457E2	16.485E2
4.1501E2	17.104E2
4.1545E2	18.742E2
4.1589E2	19.725E2
4.1633E2	20.932E2
4.1676E2	22.968E2
4.172E2	25.096E2
4.1764E2	27.048E2
4.1808E2	28.90E2
4.1852E2	30.914E2
4.1896E2	33.26E2
4.194E2	35.11E2
4.1984E2	38.84E2
4.2027E2	40.622E2
4.2071E2	44.269E2
4.2115E2	46.706E2
4.2159E2	50.388E2
4.2203E2	53.861E2
4.2247E2	56.81E2
4.2291E2	60.655E2
4.2334E2	65.925E2
4.2378E2	69.123E2
4.2422E2	74.197E2
4.2466E2	80.516E2
4.251E2	84.164E2
4.2554E2	88.967E2
4.2597E2	94.897E2
4.2641E2	1.0182E4
4.2685E2	1.0839E4
4.2729E2	1.1659E4
4.2773E2	1.2384E4
4.2816E2	1.3215E4
4.286E2	1.3775E4
4.2904E2	1.5038E4
4.2948E2	1.600E4
4.2991E2	1.6889E4
4.3035E2	1.8061E4
4.3079E2	1.9183E4
4.3123E2	2.0447E4
4.3167E2	2.157E4
4.321E2	2.2663E4
4.3254E2	2.3919E4
4.3298E2	2.550E4
4.3342E2	2.6629E4
4.3385E2	2.7892E4
4.3429E2	2.9066E4
4.3473E2	3.0666E4
4.3517E2	3.142E4
4.356E2	3.2473E4
4.3604E2	3.4321E4
4.3648E2	3.4737E4
4.3692E2	3.5613E4
4.3735E2	3.6153E4
4.3779E2	3.6789E4
4.3823E2	3.7024E4
4.3866E2	3.6808E4
4.391E2	3.7709E4
4.3954E2	3.6775E4
4.3997E2	3.7609E4
4.4041E2	3.6829E4
4.4085E2	3.6122E4
4.4129E2	3.6176E4
4.4172E2	3.5003E4
4.4216E2	3.4815E4
4.426E2	3.3561E4
4.4303E2	3.234E4
4.4347E2	3.1755E4
4.4391E2	3.1392E4
4.4434E2	2.948E4
4.4478E2	2.8612E4
4.4522E2	2.7632E4
4.4565E2	2.6117E4
4.4609E2	2.475E4
4.4653E2	2.3926E4
4.4696E2	2.3195E4
4.474E2	2.2126E4
4.4783E2	2.1154E4
4.4827E2	1.9996E4
4.4871E2	1.9604E4
4.4914E2	1.8672E4
4.4958E2	1.7819E4
4.5002E2	1.7299E4
4.5045E2	1.6847E4
4.5089E2	1.6484E4
4.5132E2	1.6144E4
4.5176E2	1.6039E4
4.522E2	1.5675E4
4.5263E2	1.5089E4
4.5307E2	1.4802E4
4.535E2	1.4491E4
4.5394E2	1.4259E4
4.5437E2	1.4052E4
4.5481E2	1.3992E4
4.5525E2	1.3782E4
4.5568E2	1.3652E4
4.5612E2	1.3483E4
4.5655E2	1.3198E4
4.5699E2	1.3146E4
4.5742E2	1.2711E4
4.5786E2	1.2655E4
4.5829E2	1.2219E4
4.5873E2	1.2229E4
4.5917E2	1.1927E4
4.596E2	1.1648E4
4.6004E2	1.1279E4
4.6047E2	1.1266E4
4.6091E2	1.1035E4
4.6134E2	1.089E4
4.6178E2	1.0807E4
4.6221E2	1.0526E4
4.6265E2	1.0406E4
4.6308E2	1.0332E4
4.6352E2	1.0295E4
4.6395E2	1.0142E4
4.6439E2	1.0104E4
4.6482E2	1.014E4
4.6526E2	1.0047E4
4.6569E2	1.0043E4
4.6613E2	1.0183E4
4.6656E2	1.0105E4
4.670E2	1.0331E4
4.6743E2	1.0393E4
4.6787E2	1.0627E4
4.683E2	1.0734E4
4.6873E2	1.085E4
4.6917E2	1.0883E4
4.696E2	1.1055E4
4.7004E2	1.1272E4
4.7047E2	1.1394E4
4.7091E2	1.1754E4
4.7134E2	1.178E4
4.7177E2	1.2049E4
4.7221E2	1.2183E4
4.7264E2	1.2289E4
4.7308E2	1.2673E4
4.7351E2	1.2783E4
4.7395E2	1.2909E4
4.7438E2	1.3182E4
4.7481E2	1.3438E4
4.7525E2	1.3613E4
4.7568E2	1.3867E4
4.7612E2	1.4068E4
4.7655E2	1.4274E4
4.7698E2	1.4503E4
4.7742E2	1.4614E4
4.7785E2	1.4986E4
4.7828E2	1.5179E4
4.7872E2	1.5471E4
4.7915E2	1.5719E4
4.7959E2	1.5909E4
4.8002E2	1.6291E4
4.8045E2	1.6266E4
4.8089E2	1.6484E4
4.8132E2	1.6764E4
4.8175E2	1.7104E4
4.8219E2	1.7481E4
4.8262E2	1.7708E4
4.8305E2	1.8119E4
4.8349E2	1.8503E4
4.8392E2	1.8708E4
4.8435E2	1.8987E4
4.8479E2	1.9288E4
4.8522E2	1.9311E4
4.8565E2	1.971E4
4.8608E2	1.9966E4
4.8652E2	2.028E4
4.8695E2	2.0468E4
4.8738E2	2.099E4
4.8782E2	2.1132E4
4.8825E2	2.1219E4
4.8868E2	2.1656E4
4.8911E2	2.1832E4
4.8955E2	2.2011E4
4.8998E2	2.2127E4
4.9041E2	2.2401E4
4.9084E2	2.2801E4
4.9128E2	2.3191E4
4.9171E2	2.3274E4
4.9214E2	2.3535E4
4.9257E2	2.3817E4
4.9301E2	2.3834E4
4.9344E2	2.4351E4
4.9387E2	2.4463E4
4.943E2	2.4967E4
4.9474E2	2.5192E4
4.9517E2	2.5094E4
4.956E2	2.5175E4
4.9603E2	2.5576E4
4.9647E2	2.566E4
4.969E2	2.5663E4
4.9733E2	2.5954E4
4.9776E2	2.6172E4
4.9819E2	2.6336E4
4.9862E2	2.6421E4
4.9906E2	2.6593E4
4.9949E2	2.655E4
4.9992E2	2.6763E4
5.0035E2	2.7194E4
5.0078E2	2.7187E4
5.0122E2	2.7295E4
5.0165E2	2.7166E4
5.0208E2	2.7386E4
5.0251E2	2.7782E4
5.0294E2	2.7724E4
5.0337E2	2.7586E4
5.038E2	2.7754E4
5.0424E2	2.7792E4
5.0467E2	2.7958E4
5.051E2	2.807E4
5.0553E2	2.7879E4
5.0596E2	2.7831E4
5.0639E2	2.7999E4
5.0682E2	2.7889E4
5.0725E2	2.7911E4
5.0769E2	2.8067E4
5.0812E2	2.7733E4
5.0855E2	2.7654E4
5.0898E2	2.8065E4
5.0941E2	2.7724E4
5.0984E2	2.7516E4
5.1027E2	2.7724E4
5.107E2	2.7879E4
5.1113E2	2.7859E4
5.1156E2	2.7648E4
5.1199E2	2.7845E4
5.1242E2	2.7576E4
5.1285E2	2.7442E4
5.1329E2	2.7313E4
5.1372E2	2.7462E4
5.1415E2	2.7479E4
5.1458E2	2.7407E4
5.1501E2	2.713E4
5.1544E2	2.7219E4
5.1587E2	2.7243E4
5.163E2	2.724E4
5.1673E2	2.7348E4
5.1716E2	2.7272E4
5.1759E2	2.7063E4
5.1802E2	2.7046E4
5.1845E2	2.7289E4
5.1888E2	2.7305E4
5.1931E2	2.7165E4
5.1974E2	2.7387E4
5.2017E2	2.7232E4
5.206E2	2.6942E4
5.2103E2	2.7039E4
5.2146E2	2.7131E4
5.2189E2	2.7133E4
5.2232E2	2.7005E4
5.2275E2	2.6916E4
5.2318E2	2.7039E4
5.2361E2	2.7167E4
5.2404E2	2.7172E4
5.2447E2	2.7386E4
5.2489E2	2.6958E4
5.2532E2	2.7273E4
5.2575E2	2.7383E4
5.2618E2	2.7441E4
5.2661E2	2.7109E4
5.2704E2	2.7303E4
5.2747E2	2.7418E4
5.279E2	2.7359E4
5.2833E2	2.7477E4
5.2876E2	2.7523E4
5.2919E2	2.7807E4
5.2962E2	2.7741E4
5.3004E2	2.7578E4
5.3047E2	2.7681E4
5.309E2	2.772E4
5.3133E2	2.7537E4
5.3176E2	2.7755E4
5.3219E2	2.7638E4
5.3262E2	2.7856E4
5.3305E2	2.7775E4
5.3348E2	2.7949E4
5.339E2	2.7908E4
5.3433E2	2.7981E4
5.3476E2	2.8045E4
5.3519E2	2.8175E4
5.3562E2	2.8355E4
5.3605E2	2.8308E4
5.3647E2	2.8139E4
5.369E2	2.8261E4
5.3733E2	2.8182E4
5.3776E2	2.8287E4
5.3819E2	2.8209E4
5.3862E2	2.8527E4
5.3904E2	2.8689E4
5.3947E2	2.8872E4
5.399E2	2.8755E4
5.4033E2	2.8807E4
5.4076E2	2.8687E4
5.4118E2	2.8636E4
5.4161E2	2.8942E4
5.4204E2	2.9063E4
5.4247E2	2.9068E4
5.4289E2	2.8766E4
5.4332E2	2.8839E4
5.4375E2	2.8939E4
5.4418E2	2.8973E4
5.4461E2	2.9202E4
5.4503E2	2.913E4
5.4546E2	2.9095E4
5.4589E2	2.8928E4
5.4632E2	2.8778E4
5.4674E2	2.8449E4
5.4717E2	2.8761E4
5.476E2	2.9073E4
5.4802E2	2.9139E4
5.4845E2	2.9031E4
5.4888E2	2.9131E4
5.4931E2	2.9176E4
5.4973E2	2.9335E4
5.5016E2	2.9298E4
5.5059E2	2.9058E4
5.5101E2	2.9101E4
5.5144E2	2.9286E4
5.5187E2	2.9197E4
5.5229E2	2.9064E4
5.5272E2	2.9266E4
5.5315E2	2.9126E4
5.5357E2	2.8772E4
5.540E2	2.878E4
5.5443E2	2.9042E4
5.5485E2	2.929E4
5.5528E2	2.8775E4
5.5571E2	2.8889E4
5.5613E2	2.8794E4
5.5656E2	2.8732E4
5.5699E2	2.9137E4
5.5741E2	2.8562E4
5.5784E2	2.8472E4
5.5827E2	2.8304E4
5.5869E2	2.8392E4
5.5912E2	2.7973E4
5.5954E2	2.7955E4
5.5997E2	2.8032E4
5.604E2	2.7786E4
5.6082E2	2.7573E4
5.6125E2	2.705E4
5.6167E2	2.6788E4
5.621E2	2.6577E4
5.6253E2	2.6455E4
5.6295E2	2.6271E4
5.6338E2	2.6265E4
5.638E2	2.5924E4
5.6423E2	2.5945E4
5.6465E2	2.5911E4
5.6508E2	2.582E4
5.6551E2	2.5678E4
5.6593E2	2.5469E4
5.6636E2	2.5116E4
5.6678E2	2.4899E4
5.6721E2	2.5183E4
5.6763E2	2.5062E4
5.6806E2	2.4829E4
5.6848E2	2.462E4
5.6891E2	2.4481E4
5.6933E2	2.4276E4
5.6976E2	2.4322E4
5.7018E2	2.430E4
5.7061E2	2.4188E4
5.7103E2	2.3999E4
5.7146E2	2.3873E4
5.7188E2	2.3882E4
5.7231E2	2.3585E4
5.7273E2	2.339E4
5.7316E2	2.3411E4
5.7358E2	2.3401E4
5.7401E2	2.3143E4
5.7443E2	2.3157E4
5.7486E2	2.2742E4
5.7528E2	2.278E4
5.7571E2	2.2789E4
5.7613E2	2.2653E4
5.7655E2	2.2494E4
5.7698E2	2.2716E4
5.774E2	2.2462E4
5.7783E2	2.2558E4
5.7825E2	2.2426E4
5.7868E2	2.2297E4
5.791E2	2.2069E4
5.7952E2	2.2081E4
5.7995E2	2.217E4
5.8037E2	2.1968E4
5.808E2	2.2078E4
5.8122E2	2.1741E4
5.8164E2	2.1778E4
5.8207E2	2.1495E4
5.8249E2	2.1377E4
5.8291E2	2.1699E4
5.8334E2	2.1417E4
5.8376E2	2.132E4
5.8419E2	2.115E4
5.8461E2	2.0938E4
5.8503E2	2.0745E4
5.8546E2	2.0786E4
5.8588E2	2.0707E4
5.863E2	2.0675E4
5.8673E2	2.0827E4
5.8715E2	2.072E4
5.8757E2	2.0494E4
5.880E2	2.0295E4
5.8842E2	2.0064E4
5.8884E2	2.0007E4
5.8927E2	1.9941E4
5.8969E2	1.9891E4
5.9011E2	1.9641E4
5.9054E2	1.9722E4
5.9096E2	1.9744E4
5.9138E2	1.9537E4
5.918E2	1.9436E4
5.9223E2	1.9231E4
5.9265E2	1.9213E4
5.9307E2	1.9146E4
5.9349E2	1.9254E4
5.9392E2	1.905E4
5.9434E2	1.9118E4
5.9476E2	1.9011E4
5.9519E2	1.8775E4
5.9561E2	1.8858E4
5.9603E2	1.8552E4
5.9645E2	1.8697E4
5.9687E2	1.8732E4
5.973E2	1.8661E4
5.9772E2	1.8646E4
5.9814E2	1.8586E4
5.9856E2	1.8485E4
5.9899E2	1.8529E4
5.9941E2	1.8545E4
5.9983E2	1.8728E4
6.0025E2	1.8589E4
6.0067E2	1.8368E4
6.011E2	1.8265E4
6.0152E2	1.801E4
6.0194E2	1.8065E4
6.0236E2	1.7952E4
6.0278E2	1.7719E4
6.032E2	1.7936E4
6.0363E2	1.7592E4
6.0405E2	1.7596E4
6.0447E2	1.7611E4
6.0489E2	1.7597E4
6.0531E2	1.7266E4
6.0573E2	1.7005E4
6.0615E2	1.6949E4
6.0658E2	1.693E4
6.070E2	1.6675E4
6.0742E2	1.6559E4
6.0784E2	1.6324E4
6.0826E2	1.6142E4
6.0868E2	1.5951E4
6.091E2	1.5878E4
6.0952E2	1.570E4
6.0995E2	1.5655E4
6.1037E2	1.5418E4
6.1079E2	1.5063E4
6.1121E2	1.4953E4
6.1163E2	1.4762E4
6.1205E2	1.4603E4
6.1247E2	1.4458E4
6.1289E2	1.4327E4
6.1331E2	1.4145E4
6.1373E2	1.3851E4
6.1415E2	1.3606E4
6.1457E2	1.3623E4
6.1499E2	1.3476E4
6.1541E2	1.3121E4
6.1583E2	1.3003E4
6.1625E2	1.2728E4
6.1667E2	1.2612E4
6.1709E2	1.2358E4
6.1751E2	1.2124E4
6.1794E2	1.2097E4
6.1836E2	1.198E4
6.1878E2	1.1976E4
6.192E2	1.1933E4
6.1962E2	1.1679E4
6.2003E2	1.1511E4
6.2045E2	1.1269E4
6.2087E2	1.1011E4
6.2129E2	1.0914E4
6.2171E2	1.1021E4
6.2213E2	1.0749E4
6.2255E2	1.0695E4
6.2297E2	1.0562E4
6.2339E2	1.0374E4
6.2381E2	1.0303E4
6.2423E2	1.0243E4
6.2465E2	1.0089E4
6.2507E2	1.009E4
6.2549E2	98.668E2
6.2591E2	97.02E2
6.2633E2	95.935E2
6.2675E2	94.84E2
6.2717E2	94.834E2
6.2759E2	93.216E2
6.280E2	91.80E2
6.2842E2	91.234E2
6.2884E2	90.387E2
6.2926E2	89.052E2
6.2968E2	87.486E2
6.301E2	87.142E2
6.3052E2	86.933E2
6.3094E2	86.18E2
6.3135E2	84.15E2
6.3177E2	82.657E2
6.3219E2	83.087E2
6.3261E2	82.259E2
6.3303E2	81.56E2
6.3345E2	79.833E2
6.3387E2	79.228E2
6.3428E2	78.618E2
6.347E2	77.151E2
6.3512E2	77.03E2
6.3554E2	75.501E2
6.3596E2	74.39E2
6.3638E2	73.517E2
6.3679E2	72.986E2
6.3721E2	71.357E2
6.3763E2	70.765E2
6.3805E2	70.329E2
6.3847E2	69.673E2
6.3888E2	68.909E2
6.393E2	68.752E2
6.3972E2	67.502E2
6.4014E2	65.773E2
6.4055E2	64.763E2
6.4097E2	63.684E2
6.4139E2	63.805E2
6.4181E2	63.918E2
6.4222E2	62.407E2
6.4264E2	61.788E2
6.4306E2	60.068E2
6.4348E2	59.663E2
6.4389E2	59.067E2
6.4431E2	57.793E2
6.4473E2	57.06E2
6.4515E2	56.794E2
6.4556E2	56.07E2
6.4598E2	55.956E2
6.464E2	55.089E2
6.4681E2	54.225E2
6.4723E2	53.121E2
6.4765E2	52.584E2
6.4806E2	51.437E2
6.4848E2	51.342E2
6.489E2	50.425E2
6.4931E2	49.321E2
6.4973E2	49.164E2
6.5015E2	47.81E2
6.5056E2	47.334E2
6.5098E2	47.444E2
6.514E2	46.065E2
6.5181E2	44.895E2
6.5223E2	44.574E2
6.5265E2	43.748E2
6.5306E2	43.086E2
6.5348E2	42.158E2
6.5389E2	41.907E2
6.5431E2	41.266E2
6.5473E2	40.276E2
6.5514E2	39.923E2
6.5556E2	39.923E2
6.5597E2	38.849E2
6.5639E2	38.885E2
6.5681E2	37.666E2
6.5722E2	37.641E2
6.5764E2	36.335E2
6.5805E2	35.995E2
6.5847E2	35.158E2
6.5889E2	34.473E2
6.593E2	33.825E2
6.5972E2	34.064E2
6.6013E2	33.811E2
6.6055E2	32.937E2
6.6096E2	31.608E2
6.6138E2	31.242E2
6.6179E2	31.287E2
6.6221E2	30.86E2
6.6262E2	30.248E2
6.6304E2	29.533E2
6.6345E2	29.72E2
6.6387E2	28.755E2
6.6428E2	28.448E2
6.647E2	27.794E2
6.6511E2	26.78E2
6.6553E2	26.736E2
6.6594E2	26.163E2
6.6636E2	25.81E2
6.6677E2	24.698E2
6.6719E2	25.312E2
6.676E2	24.566E2
6.6802E2	23.828E2
6.6843E2	23.255E2
6.6885E2	23.202E2
6.6926E2	22.584E2
6.6967E2	22.142E2
6.7009E2	22.338E2
6.705E2	21.587E2
6.7092E2	20.863E2
6.7133E2	20.413E2
6.7175E2	20.397E2
6.7216E2	20.012E2
6.7257E2	19.81E2
6.7299E2	19.539E2
6.734E2	19.175E2
6.7382E2	19.079E2
6.7423E2	18.604E2
6.7464E2	17.789E2
6.7506E2	17.455E2
6.7547E2	17.648E2
6.7588E2	17.193E2
6.763E2	16.92E2
6.7671E2	16.542E2
6.7713E2	15.823E2
6.7754E2	15.95E2
6.7795E2	15.65E2
6.7837E2	15.541E2
6.7878E2	15.186E2
6.7919E2	15.327E2
6.7961E2	14.619E2
6.8002E2	14.76E2
6.8043E2	14.305E2
6.8085E2	14.294E2
6.8126E2	13.675E2
6.8167E2	13.641E2
6.8208E2	13.254E2
6.825E2	13.09E2
6.8291E2	12.812E2
6.8332E2	12.587E2
6.8374E2	12.448E2
6.8415E2	12.105E2
6.8456E2	11.809E2
6.8497E2	11.565E2
6.8539E2	11.52E2
6.858E2	11.09E2
6.8621E2	10.755E2
6.8662E2	11.167E2
6.8704E2	10.944E2
6.8745E2	10.705E2
6.8786E2	10.305E2
6.8827E2	10.53E2
6.8869E2	10.045E2
6.891E2	10.107E2
6.8951E2	9.9112E2
6.8992E2	9.7519E2
6.9033E2	9.4538E2
6.9075E2	9.6472E2
6.9116E2	9.0101E2
6.9157E2	8.9737E2
6.9198E2	8.5459E2
6.9239E2	8.5186E2
6.928E2	8.5026E2
6.9322E2	8.4025E2
6.9363E2	8.3115E2
6.9404E2	7.9861E2
6.9445E2	7.8518E2
6.9486E2	7.7631E2
6.9527E2	7.6925E2
6.9568E2	7.6561E2
6.961E2	7.4559E2
6.9651E2	7.4559E2
6.9692E2	6.8756E2
6.9733E2	7.1828E2
6.9774E2	7.069E2
6.9815E2	6.9098E2
6.9856E2	6.7801E2
6.9897E2	6.6435E2
6.9939E2	6.8529E2
6.998E2	6.482E2
7.0021E2	6.4251E2
7.0062E2	5.9518E2
7.0103E2	6.0928E2
7.0144E2	6.3295E2
7.0185E2	6.0496E2
7.0226E2	5.7015E2
7.0267E2	5.9108E2
7.0308E2	5.5604E2
7.0349E2	5.7811E2
7.039E2	5.4329E2
7.0431E2	5.4307E2
7.0472E2	5.3146E2
7.0513E2	5.2941E2
7.0554E2	5.062E2
7.0595E2	5.1258E2
7.0636E2	4.8777E2
7.0677E2	4.8163E2
7.0718E2	4.632E2
7.0759E2	4.6024E2
7.080E2	4.7025E2
7.0841E2	4.4909E2
7.0882E2	4.6229E2
7.0923E2	4.4408E2
7.0964E2	4.4522E2
7.1005E2	4.1291E2
7.1046E2	4.3452E2
7.1087E2	4.0221E2
7.1128E2	3.9243E2
7.1169E2	3.9334E2
7.121E2	3.608E2
7.1251E2	3.8105E2
7.1292E2	3.5238E2
7.1333E2	3.4874E2
7.1374E2	3.4555E2
7.1415E2	3.5488E2
7.1455E2	3.3918E2
7.1496E2	3.4146E2
7.1537E2	3.3076E2
7.1578E2	3.1893E2
7.1619E2	3.2393E2
7.166E2	3.0414E2
7.1701E2	3.0687E2
7.1742E2	3.278E2
7.1783E2	2.6181E2
7.1823E2	2.9572E2
7.1864E2	2.9595E2
7.1905E2	2.7137E2
7.1946E2	2.7319E2
7.1987E2	2.8184E2
7.2028E2	2.6614E2
7.2069E2	2.5817E2
7.2109E2	2.3724E2
7.215E2	2.3223E2
7.2191E2	2.3109E2
7.2232E2	2.427E2
7.2273E2	2.3678E2
7.2313E2	2.1835E2
7.2354E2	2.1403E2
7.2395E2	2.3109E2
7.2436E2	2.1699E2
7.2477E2	2.0697E2
7.2517E2	2.0879E2
7.2558E2	1.8604E2
7.2599E2	2.047E2
7.264E2	1.9082E2
7.268E2	2.0857E2
7.2721E2	2.1653E2
7.2762E2	1.8581E2
7.2803E2	1.7261E2
7.2843E2	1.8718E2
7.2884E2	1.6351E2
7.2925E2	1.6761E2
7.2966E2	1.7466E2
7.3006E2	1.8171E2
7.3047E2	1.6306E2
7.3088E2	1.667E2
7.3129E2	1.6852E2
7.3169E2	1.7375E2
7.321E2	1.6988E2
7.3251E2	1.5213E2
7.3291E2	1.4326E2
7.3332E2	1.2369E2
7.3373E2	1.3871E2
7.3413E2	1.3165E2
7.3454E2	1.205E2
7.3495E2	1.2483E2
7.3535E2	1.3825E2
7.3576E2	1.4804E2
7.3617E2	1.2892E2
7.3657E2	1.362E2
7.3698E2	1.5282E2
7.3738E2	1.5145E2
7.3779E2	1.4735E2
7.382E2	1.2551E2
7.386E2	1.2141E2
7.3901E2	1.1868E2
7.3942E2	1.2551E2
7.3982E2	1.2619E2
7.4023E2	1.0617E2
7.4063E2	1.0617E2
7.4104E2	89.101E0
7.4145E2	84.55E0
7.4185E2	79.771E0
7.4226E2	1.0935E2
7.4266E2	82.274E0
7.4307E2	99.796E0
7.4347E2	74.31E0
7.4388E2	1.0617E2
7.4428E2	98.43E0
7.4469E2	87.736E0
7.4509E2	81.592E0
7.455E2	91.149E0
7.4591E2	68.621E0
7.4631E2	82.047E0
7.4672E2	71.124E0
7.4712E2	81.137E0
7.4753E2	84.095E0
7.4793E2	53.148E0
7.4834E2	57.471E0
7.4874E2	83.185E0
7.4915E2	48.824E0
7.4955E2	51.10E0
7.4995E2	79.771E0
7.5036E2	54.968E0
7.5076E2	53.148E0
7.5117E2	79.771E0
7.5157E2	44.273E0
7.5198E2	60.202E0
7.5238E2	64.07E0
7.5279E2	47.686E0
7.5319E2	52.01E0
7.5359E2	50.872E0
7.540E2	31.758E0
7.544E2	52.92E0
7.5481E2	47.686E0
7.5521E2	62.705E0
7.5562E2	54.513E0
7.5602E2	38.357E0
7.5642E2	49.052E0
7.5683E2	42.225E0
7.5723E2	54.285E0
7.5763E2	30.165E0
7.5804E2	21.518E0
7.5844E2	52.92E0
7.5885E2	49.962E0
7.5925E2	36.309E0
7.5965E2	31.758E0
7.6006E2	21.518E0
7.6046E2	44.728E0
7.6086E2	33.123E0
7.6127E2	36.309E0
7.6167E2	16.512E0
7.6207E2	23.338E0
7.6248E2	35.626E0
7.6288E2	23.793E0
7.6328E2	7.6372E0
7.6368E2	25.386E0
7.6409E2	24.021E0
7.6449E2	32.44E0
7.6489E2	28.572E0
7.653E2	8.775E0
7.657E2	28.572E0
7.661E2	36.536E0
7.665E2	44.273E0
7.6691E2	11.05E0
7.6731E2	21.518E0
7.6771E2	25.386E0
7.6811E2	43.135E0
7.6852E2	1.7209E0
7.6892E2	26.069E0
7.6932E2	20.608E0
7.6972E2	16.739E0
7.7012E2	17.65E0
7.7053E2	-13.298E0
7.7093E2	10.368E0
7.7133E2	12.871E0
7.7173E2	1.4933E0
7.7213E2	26.296E0
7.7254E2	9.9127E0
7.7294E2	41.998E0
7.7334E2	25.386E0
7.7374E2	12.643E0
7.7414E2	21.973E0
7.7454E2	21.973E0
7.7495E2	2.8586E0
7.7535E2	21.063E0
7.7575E2	19.925E0
7.7615E2	11.278E0
7.7655E2	-6.2435E0
7.7695E2	17.422E0
7.7735E2	-20.124E0
7.7775E2	12.416E0
7.7816E2	-8.9741E0
7.7856E2	14.236E0
7.7896E2	9.0025E0
7.7936E2	-78.221E-2
7.7976E2	1.7209E0
7.8016E2	7.6372E0
7.8056E2	10.14E0
7.8096E2	14.691E0
7.8136E2	5.8168E0
7.8176E2	-1.4649E0
7.8216E2	-1.920E0
7.8256E2	2.6311E0
7.8296E2	-10.112E0
7.8337E2	-2.3751E0
7.8377E2	-10.112E0
7.8417E2	-10.567E0
7.8457E2	-8.2914E0
7.8497E2	8.0923E0
7.8537E2	-29.226E0
7.8577E2	-12.16E0
7.8617E2	19.697E0
7.8657E2	11.961E0
7.8697E2	-10.795E0
7.8737E2	-4.423E0
7.8777E2	9.6852E0
7.8817E2	-1.920E0
7.8857E2	-5.1057E0
7.8896E2	-12.16E0
7.8936E2	17.194E0
7.8976E2	1.4933E0
7.9016E2	6.4995E0
7.9056E2	9.0025E0
7.9096E2	-17.166E0
7.9136E2	-20.124E0
7.9176E2	-2.3751E0
7.9216E2	3.7688E0
7.9256E2	3.7688E0
7.9296E2	-26.951E0
7.9336E2	-18.076E0
7.9376E2	5.8168E0
7.9416E2	-24.448E0
7.9455E2	-24.448E0
7.9495E2	6.727E0
7.9535E2	-4.423E0
7.9575E2	24.476E0
7.9615E2	-13.298E0
7.9655E2	-7.3812E0
7.9695E2	-15.118E0
7.9734E2	-18.531E0
7.9774E2	-11.25E0
7.9814E2	-33.777E0
7.9854E2	-10.339E0
7.9894E2	-5.3333E0
7.9934E2	-18.986E0
7.9973E2	-12.387E0
8.0013E2	-13.98E0
8.0053E2	-2.8302E0
8.0093E2	-15.801E0
8.0133E2	-13.753E0
8.0172E2	-18.531E0
8.0212E2	11.733E0
8.0252E2	-18.986E0
8.0292E2	-7.3812E0
8.0332E2	-17.166E0
8.0371E2	-6.471E0
8.0411E2	-16.256E0
8.0451E2	-8.9741E0
8.0491E2	-11.705E0
8.053E2	-8.2914E0
8.057E2	-18.531E0
8.061E2	-30.136E0
8.065E2	-16.938E0
8.0689E2	-14.208E0
8.0729E2	-34.005E0
8.0769E2	-5.7884E0
8.0808E2	-15.573E0
8.0848E2	-6.9261E0
8.0888E2	-3.9679E0
8.0928E2	-32.711E-2
8.0967E2	-8.7465E0
8.1007E2	-2.8302E0
8.1047E2	7.8648E0
8.1086E2	-3.0577E0
8.1126E2	-16.256E0
8.1166E2	6.0444E0
8.1205E2	-3.9679E0
8.1245E2	-3.2853E0
8.1284E2	-6.471E0
8.1324E2	-27.178E0
8.1364E2	-36.053E0
8.1403E2	-19.669E0
8.1443E2	-25.813E0
8.1483E2	-18.759E0
8.1522E2	-12.387E0
8.1562E2	-41.514E0
8.1601E2	-21.034E0
8.1641E2	-16.483E0
8.1681E2	-8.0639E0
8.172E2	-20.579E0
8.176E2	-17.166E0
8.1799E2	-18.531E0
8.1839E2	-19.897E0
8.1878E2	58.31E-2
8.1918E2	-6.6986E0
8.1957E2	-20.579E0
8.1997E2	-18.076E0
8.2037E2	-8.2914E0
8.2076E2	-21.489E0
8.2116E2	-42.197E0
8.2155E2	-17.166E0
8.2195E2	-27.178E0
8.2234E2	-23.537E0
8.2274E2	-26.496E0
8.2313E2	-18.759E0
8.2353E2	-22.172E0
8.2392E2	-4.6506E0
8.2432E2	-32.867E0
8.2471E2	-25.358E0
8.2511E2	-29.681E0
8.255E2	-30.136E0
8.2589E2	-20.807E0
8.2629E2	-43.107E0
8.2668E2	-14.208E0
8.2708E2	-26.496E0
8.2747E2	6.4995E0
8.2787E2	-16.028E0
8.2826E2	-25.358E0
8.2866E2	-31.957E0
8.2905E2	-8.9741E0
8.2944E2	-6.9261E0
8.2984E2	-9.4292E0
8.3023E2	-24.903E0
8.3063E2	-22.855E0
8.3102E2	-33.322E0
8.3141E2	-36.735E0
8.3181E2	-22.855E0
8.322E2	-35.598E0
8.3259E2	-4.6506E0
8.3299E2	-26.496E0
8.3338E2	-29.454E0
8.3378E2	-3.2853E0
8.3417E2	-34.46E0
8.3456E2	-32.711E-2
8.3496E2	-28.088E0
8.3535E2	9.4576E0
8.3574E2	-24.675E0
8.3613E2	-23.082E0
8.3653E2	-15.118E0
8.3692E2	-14.89E0
8.3731E2	-28.771E0
8.3771E2	-6.6986E0
8.381E2	-26.951E0
8.3849E2	-22.627E0
8.3889E2	-39.466E0
8.3928E2	-27.406E0
8.3967E2	-5.1057E0
8.4006E2	-15.118E0
8.4046E2	-33.777E0
8.4085E2	-38.101E0
8.4124E2	-18.076E0
8.4163E2	-12.615E0
8.4203E2	-39.694E0
8.4242E2	-19.669E0
8.4281E2	-33.322E0
8.432E2	-25.358E0
8.4359E2	-10.112E0
8.4399E2	-24.675E0
8.4438E2	-16.483E0
8.4477E2	-10.112E0
8.4516E2	-33.322E0
8.4555E2	-18.986E0
8.4595E2	-14.208E0
8.4634E2	-13.298E0
8.4673E2	-1.920E0
8.4712E2	-18.986E0
8.4751E2	-16.028E0
8.479E2	-15.118E0
8.4829E2	-27.633E0
8.4869E2	-28.999E0
8.4908E2	-16.938E0
8.4947E2	-24.448E0
8.4986E2	-31.502E0
8.5025E2	-25.358E0
8.5064E2	-30.819E0
8.5103E2	-29.909E0
8.5142E2	-28.999E0
8.5181E2	-5.3333E0
8.5221E2	-18.076E0
8.526E2	-19.897E0
8.5299E2	-8.7465E0
8.5338E2	-35.37E0
8.5377E2	-19.897E0
8.5416E2	-36.735E0
8.5455E2	-19.897E0
8.5494E2	-21.262E0
8.5533E2	-17.166E0
8.5572E2	-9.2016E0
8.5611E2	-2.8302E0
8.565E2	-11.477E0
8.5689E2	-52.892E0
8.5728E2	-34.46E0
8.5767E2	-8.519E0
8.5806E2	-42.879E0
8.5845E2	-43.334E0
8.5884E2	-20.807E0
8.5923E2	-32.412E0
8.5962E2	-22.40E0
8.6001E2	-26.951E0
8.604E2	-26.496E0
8.6079E2	-25.358E0
8.6118E2	-28.771E0
8.6157E2	-11.705E0
8.6196E2	-21.034E0
8.6235E2	-35.37E0
8.6274E2	-21.717E0
8.6313E2	-34.232E0
8.6352E2	-39.239E0
8.639E2	-12.615E0
8.6429E2	-26.951E0
8.6468E2	-27.178E0
8.6507E2	-31.502E0
8.6546E2	-37.873E0
8.6585E2	-21.262E0
8.6624E2	-23.31E0
8.6663E2	-3.2853E0
8.6702E2	-37.873E0
8.674E2	-27.861E0
8.6779E2	-28.316E0
8.6818E2	-12.387E0
8.6857E2	-17.394E0
8.6896E2	-36.28E0
8.6935E2	-28.088E0
8.6973E2	-17.849E0
8.7012E2	-24.22E0
8.7051E2	-23.765E0
8.709E2	-29.909E0
8.7129E2	-23.765E0
8.7167E2	-22.40E0
8.7206E2	-44.927E0
8.7245E2	-15.573E0
8.7284E2	-33.777E0
8.7323E2	-17.394E0
8.7361E2	-27.178E0
8.740E2	-35.825E0
8.7439E2	-38.556E0
8.7478E2	-18.759E0
8.7516E2	-21.034E0
8.7555E2	-22.40E0
8.7594E2	-20.352E0
8.7633E2	-37.646E0
8.7671E2	-22.172E0
8.771E2	-21.489E0
8.7749E2	-38.783E0
8.7787E2	-21.034E0
8.7826E2	-34.687E0
8.7865E2	-48.113E0
8.7904E2	-34.687E0
8.7942E2	-30.364E0
8.7981E2	12.416E0
8.802E2	-3.2853E0
8.8058E2	-26.496E0
8.8097E2	-16.028E0
8.8136E2	-10.112E0
8.8174E2	-16.483E0
8.8213E2	-1.6924E0
8.8252E2	-18.986E0
8.829E2	-34.915E0
8.8329E2	-29.681E0
8.8367E2	-8.7465E0
8.8406E2	-10.567E0
8.8445E2	-22.855E0
8.8483E2	-18.759E0
8.8522E2	-5.3333E0
8.856E2	-15.346E0
8.8599E2	-20.807E0
8.8638E2	-22.855E0
8.8676E2	-23.537E0
8.8715E2	-18.076E0
8.8753E2	-2.1475E0
8.8792E2	-31.502E0
8.883E2	-43.107E0
8.8869E2	-17.849E0
8.8907E2	-20.579E0
8.8946E2	-8.9741E0
8.8984E2	-45.155E0
8.9023E2	-36.735E0
8.9062E2	-37.191E0
8.910E2	-31.502E0
8.9139E2	-24.903E0
8.9177E2	-24.22E0
8.9216E2	-25.358E0
8.9254E2	-34.232E0
8.9292E2	-16.711E0
8.9331E2	-38.101E0
8.9369E2	-16.028E0
8.9408E2	-39.011E0
8.9446E2	-38.783E0
8.9485E2	-26.04E0
8.9523E2	-22.855E0
8.9562E2	-18.986E0
8.960E2	-25.585E0
8.9639E2	-17.166E0
8.9677E2	-39.466E0
8.9715E2	-49.478E0
8.9754E2	-38.328E0
8.9792E2	-35.143E0
8.9831E2	-5.7884E0
8.9869E2	-32.64E0
8.9907E2	-10.339E0
8.9946E2	-29.909E0
8.9984E2	-30.592E0
9.0022E2	-17.849E0
9.0061E2	-14.89E0
9.0099E2	-59.946E0
9.0138E2	1.0382E0
9.0176E2	-36.053E0
9.0214E2	-43.334E0
9.0253E2	-35.598E0
9.0291E2	-20.352E0
9.0329E2	-23.082E0
9.0368E2	-24.448E0
9.0406E2	-35.825E0
9.0444E2	-25.585E0
9.0482E2	-26.04E0
9.0521E2	-41.969E0
9.0559E2	-34.46E0
9.0597E2	-36.735E0
9.0636E2	-30.364E0
9.0674E2	-43.562E0
9.0712E2	-45.61E0
9.075E2	-35.825E0
9.0789E2	-2.6026E0
9.0827E2	-28.771E0
9.0865E2	-37.873E0
9.0903E2	-31.274E0
9.0941E2	-13.298E0
9.098E2	-20.352E0
9.1018E2	-10.567E0
9.1056E2	-31.502E0
9.1094E2	-24.448E0
9.1133E2	-16.028E0
9.1171E2	-34.232E0
9.1209E2	-25.358E0
9.1247E2	-14.435E0
9.1285E2	-23.537E0
9.1323E2	-22.172E0
9.1362E2	-13.525E0
9.140E2	-11.477E0
9.1438E2	-16.483E0
9.1476E2	-26.268E0
9.1514E2	-5.3333E0
9.1552E2	-32.867E0
9.159E2	-27.178E0
9.1629E2	-31.957E0
9.1667E2	-19.214E0
9.1705E2	-9.2016E0
9.1743E2	-18.759E0
9.1781E2	-15.573E0
9.1819E2	-15.118E0
9.1857E2	-14.663E0
9.1895E2	-39.239E0
9.1933E2	-23.31E0
9.1971E2	-21.034E0
9.2009E2	-25.813E0
9.2047E2	-18.076E0
9.2085E2	-25.358E0
9.2123E2	-10.339E0
9.2162E2	-39.011E0
9.220E2	-40.149E0
9.2238E2	-21.262E0
9.2276E2	-15.346E0
9.2314E2	-28.771E0
9.2352E2	-9.8843E0
9.239E2	-20.807E0
9.2428E2	-33.55E0
9.2466E2	-23.31E0
9.2504E2	-32.184E0
9.2542E2	-34.915E0
9.2579E2	-36.28E0
9.2617E2	-35.143E0
9.2655E2	-33.777E0
9.2693E2	-47.658E0
9.2731E2	-33.55E0
9.2769E2	-36.28E0
9.2807E2	-29.909E0
9.2845E2	-31.729E0
9.2883E2	-34.232E0
9.2921E2	-22.40E0
9.2959E2	-18.304E0
9.2997E2	-30.364E0
9.3035E2	-36.735E0
9.3072E2	-31.502E0
9.311E2	-25.813E0
9.3148E2	-31.047E0
9.3186E2	-52.209E0
9.3224E2	-38.783E0
9.3262E2	-34.005E0
9.330E2	-25.585E0
9.3338E2	-27.861E0
9.3375E2	-20.579E0
9.3413E2	-34.005E0
9.3451E2	-44.472E0
9.3489E2	-21.489E0
9.3527E2	-18.986E0
9.3564E2	-34.232E0
9.3602E2	-26.268E0
9.364E2	-20.352E0
9.3678E2	-14.89E0
9.3716E2	-40.831E0
9.3753E2	-30.819E0
9.3791E2	-39.011E0
9.3829E2	-16.711E0
9.3867E2	-42.424E0
9.3904E2	-50.616E0
9.3942E2	-36.735E0
9.398E2	-18.986E0
9.4018E2	-27.633E0
9.4055E2	-22.172E0
9.4093E2	-32.867E0
9.4131E2	-12.615E0
9.4169E2	-36.963E0
9.4206E2	-42.424E0
9.4244E2	-26.268E0
9.4282E2	-27.861E0
9.4319E2	-41.514E0
9.4357E2	-23.31E0
9.4395E2	-28.316E0
9.4432E2	-6.6986E0
9.447E2	-32.64E0
9.4508E2	-22.172E0
9.4545E2	-33.55E0
9.4583E2	-28.999E0
9.4621E2	-35.598E0
9.4658E2	-42.879E0
9.4696E2	-33.322E0
9.4733E2	-40.604E0
9.4771E2	-24.448E0
9.4809E2	-30.364E0
9.4846E2	-42.424E0
9.4884E2	-37.646E0
9.4921E2	-32.867E0
9.4959E2	-17.621E0
9.4997E2	-21.489E0
9.5034E2	-19.669E0
9.5072E2	-13.98E0
9.5109E2	-24.448E0
9.5147E2	-19.214E0
9.5184E2	-33.55E0
9.5222E2	-40.831E0
9.5259E2	-23.31E0
9.5297E2	-26.268E0
9.5335E2	-30.819E0
9.5372E2	-34.687E0
9.541E2	-27.406E0
9.5447E2	-35.598E0
9.5485E2	-28.088E0
9.5522E2	-41.286E0
9.556E2	-31.957E0
9.5597E2	-31.047E0
9.5634E2	-18.986E0
9.5672E2	-9.8843E0
9.5709E2	-23.993E0
9.5747E2	-13.753E0
9.5784E2	-6.6986E0
9.5822E2	-7.3812E0
9.5859E2	-17.621E0
9.5897E2	-33.777E0
9.5934E2	-38.101E0
9.5971E2	-21.945E0
9.6009E2	-23.31E0
9.6046E2	-31.957E0
9.6084E2	-21.262E0
9.6121E2	-31.502E0
9.6158E2	-18.076E0
9.6196E2	-29.454E0
9.6233E2	-14.208E0
9.6271E2	-29.681E0
9.6308E2	-36.963E0
9.6345E2	-28.544E0
9.6383E2	-25.358E0
9.642E2	-23.31E0
9.6457E2	-53.119E0
9.6495E2	-31.957E0
9.6532E2	-22.172E0
9.6569E2	-45.382E0
9.6607E2	-32.184E0
9.6644E2	-24.675E0
9.6681E2	-19.441E0
9.6718E2	-18.531E0
9.6756E2	-26.268E0
9.6793E2	-44.017E0
9.683E2	-25.585E0
9.6867E2	-48.113E0
9.6905E2	-17.849E0
9.6942E2	-39.011E0
9.6979E2	-24.903E0
9.7016E2	-13.753E0
9.7054E2	-17.394E0
9.7091E2	-51.299E0
9.7128E2	-21.717E0
9.7165E2	-46.52E0
9.7203E2	-6.0159E0
9.724E2	-34.232E0
9.7277E2	-18.076E0
9.7314E2	-34.46E0
9.7351E2	-34.232E0
9.7389E2	-33.095E0
9.7426E2	-29.681E0
9.7463E2	-28.088E0
9.750E2	-25.358E0
9.7537E2	-14.435E0
9.7574E2	-30.592E0
9.7611E2	-45.155E0
9.7649E2	-14.89E0
9.7686E2	-50.161E0
9.7723E2	-42.424E0
9.776E2	-27.633E0
9.7797E2	-53.347E0
9.7834E2	4.996E2
9.7871E2	5.5892E0
9.7908E2	-19.897E0
9.7945E2	-36.28E0
9.7982E2	-31.502E0
9.802E2	-28.544E0
9.8057E2	-20.807E0
9.8094E2	-55.395E0
9.8131E2	-21.489E0
9.8168E2	-25.585E0
9.8205E2	-42.652E0
9.8242E2	-22.172E0
9.8279E2	-36.963E0
9.8316E2	-14.89E0
9.8353E2	-37.418E0
9.839E2	-35.37E0
9.8427E2	-5.7884E0
9.8464E2	-26.951E0
9.8501E2	-26.04E0
9.8538E2	-8.519E0
9.8575E2	-13.753E0
9.8612E2	-20.124E0
9.8649E2	-28.544E0
9.8686E2	-18.076E0
9.8723E2	-38.101E0
9.876E2	-18.076E0
9.8796E2	-26.723E0
9.8833E2	-53.347E0
9.887E2	-26.268E0
9.8907E2	-24.448E0
9.8944E2	-22.627E0
9.8981E2	-26.723E0
9.9018E2	-3.9679E0
9.9055E2	-28.771E0
9.9092E2	-28.088E0
9.9129E2	-17.849E0
9.9165E2	-24.675E0
9.9202E2	-22.40E0
9.9239E2	-16.028E0
9.9276E2	-29.909E0
9.9313E2	-23.31E0
9.935E2	-37.646E0
9.9387E2	-55.167E0
9.9423E2	-29.909E0
9.946E2	-27.633E0
9.9497E2	-23.31E0
9.9534E2	-14.663E0
9.9571E2	-32.184E0
9.9607E2	-43.334E0
9.9644E2	-44.017E0
9.9681E2	-37.418E0
9.9718E2	-39.466E0
9.9755E2	-30.364E0
9.9791E2	-20.124E0
9.9828E2	-43.107E0
9.9865E2	-30.364E0
9.9902E2	-36.28E0
9.9938E2	-46.293E0
9.9975E2	-44.017E0
10.001E2	-23.537E0
10.005E2	-26.951E0
10.009E2	-26.268E0
10.012E2	-37.873E0
10.016E2	-14.208E0
10.02E2	-34.232E0
10.023E2	-25.13E0
10.027E2	-3.2853E0
10.031E2	-36.963E0
10.034E2	-39.466E0
10.038E2	-11.25E0
10.042E2	-43.107E0
10.045E2	-35.143E0
10.049E2	-29.454E0
10.053E2	-39.011E0
10.056E2	-32.184E0
10.06E2	-38.783E0
10.064E2	-41.059E0
10.067E2	-34.915E0
10.071E2	-19.214E0
10.074E2	-31.957E0
10.078E2	-19.441E0
10.082E2	-22.627E0
10.085E2	-27.406E0
10.089E2	-38.101E0
10.093E2	-31.047E0
10.096E2	-18.759E0
10.10E2	-23.993E0
10.104E2	-16.256E0
10.107E2	-41.059E0
10.111E2	-23.537E0
10.115E2	-13.298E0
10.118E2	-24.448E0
10.122E2	-24.448E0
10.126E2	-12.615E0
10.129E2	-25.585E0
10.133E2	-26.723E0
10.137E2	-36.28E0
10.14E2	-39.239E0
10.144E2	-50.616E0
10.148E2	-53.347E0
10.151E2	-33.55E0
10.155E2	-27.178E0
10.158E2	-34.005E0
10.162E2	-34.915E0
10.166E2	-31.502E0
10.169E2	-32.64E0
10.173E2	-20.807E0
10.177E2	-11.25E0
10.18E2	-26.268E0
10.184E2	-17.166E0
10.188E2	-30.364E0
10.191E2	-13.298E0
10.195E2	-26.496E0
10.199E2	-21.262E0
10.202E2	-22.40E0
10.206E2	-32.184E0
10.209E2	-56.077E0
10.213E2	-17.621E0
10.217E2	-34.005E0
10.22E2	-25.813E0
10.224E2	-23.765E0
10.228E2	-24.675E0
10.231E2	-17.394E0
10.235E2	-28.999E0
10.238E2	-13.753E0
10.242E2	-10.567E0
10.246E2	-36.735E0
10.249E2	-22.855E0
10.253E2	-42.879E0
10.257E2	-45.838E0
10.26E2	-28.088E0
10.264E2	-33.777E0
10.267E2	-34.005E0
10.271E2	-13.525E0
10.275E2	-26.268E0
10.278E2	-25.358E0
10.282E2	-26.496E0
10.286E2	-34.915E0
10.289E2	-37.873E0
10.293E2	-22.172E0
10.296E2	-24.22E0
10.30E2	-30.136E0
10.304E2	-39.011E0
10.307E2	-33.095E0
10.311E2	-26.723E0
10.315E2	-49.933E0
10.318E2	-15.346E0
10.322E2	-37.873E0
10.325E2	-36.735E0
10.329E2	-47.203E0
10.333E2	-9.8843E0
10.336E2	-26.496E0
10.34E2	-25.13E0
10.343E2	-23.993E0
10.347E2	-38.783E0
10.351E2	-34.687E0
10.354E2	-35.825E0
10.358E2	-29.681E0
10.362E2	-31.729E0
10.365E2	-37.191E0
10.369E2	-45.61E0
10.372E2	-24.903E0
10.376E2	-2.3751E0
10.38E2	-36.508E0
