Data from JAZA26501_14-15-28-777.txt Node
Date: Sun Sep 29 14:15:28 ADT 2013
User: oceanview
Spectrometer:  JAZA2650
Trigger mode: 0
Integration Time (sec): 1.000000E-1
Scans to average: 10
Electric dark correction enabled: true
Nonlinearity correction enabled: false
Boxcar width: 0
XAxis mode: Wavelengths
Number of Pixels in Spectrum: 2048
>>>>>Begin Spectral Data<<<<<
1.897E2	-28.80E0
1.9015E2	-28.80E0
1.9061E2	-28.80E0
1.9106E2	-11.506E0
1.9151E2	-14.464E0
1.9197E2	-10.823E0
1.9242E2	6.471E0
1.9288E2	15.801E0
1.9333E2	13.298E0
1.9378E2	6.9261E0
1.9424E2	12.615E0
1.9469E2	16.483E0
1.9515E2	-58.31E-2
1.956E2	10.112E0
1.9605E2	14.435E0
1.9651E2	-4.679E0
1.9696E2	7.3812E0
1.9742E2	-32.668E0
1.9787E2	-17.65E0
1.9832E2	-9.4576E0
1.9878E2	-30.62E0
1.9923E2	-20.835E0
1.9968E2	-26.524E0
2.0014E2	-31.53E0
2.0059E2	-24.931E0
2.0104E2	-3.3137E0
2.015E2	-31.53E0
2.0195E2	-7.6372E0
2.0241E2	-21.745E0
2.0286E2	-35.171E0
2.0331E2	-30.392E0
2.0377E2	-36.536E0
2.0422E2	-18.332E0
2.0467E2	-23.566E0
2.0513E2	-19.242E0
2.0558E2	-3.7688E0
2.0603E2	-14.919E0
2.0649E2	-25.386E0
2.0694E2	-35.626E0
2.0739E2	-29.482E0
2.0785E2	-20.153E0
2.083E2	-42.908E0
2.0875E2	-39.039E0
2.0921E2	-27.662E0
2.0966E2	-49.507E0
2.1011E2	-14.464E0
2.1056E2	-43.59E0
2.1102E2	-22.883E0
2.1147E2	-32.895E0
2.1192E2	-14.919E0
2.1238E2	-44.501E0
2.1283E2	-12.80E-2
2.1328E2	-23.566E0
2.1374E2	-43.818E0
2.1419E2	-36.309E0
2.1464E2	-27.889E0
2.1509E2	-41.77E0
2.1555E2	-21.29E0
2.160E2	-19.015E0
2.1645E2	-44.956E0
2.169E2	-37.674E0
2.1736E2	-36.536E0
2.1781E2	-21.518E0
2.1826E2	-19.015E0
2.1872E2	-22.883E0
2.1917E2	-26.069E0
2.1962E2	-36.536E0
2.2007E2	-35.854E0
2.2053E2	-18.105E0
2.2098E2	-42.68E0
2.2143E2	-27.662E0
2.2188E2	-14.236E0
2.2234E2	-24.249E0
2.2279E2	-27.889E0
2.2324E2	-14.919E0
2.2369E2	-20.38E0
2.2414E2	-17.65E0
2.246E2	-23.793E0
2.2505E2	-23.793E0
2.255E2	-24.476E0
2.2595E2	4.6506E0
2.2641E2	-19.242E0
2.2686E2	-29.027E0
2.2731E2	-31.075E0
2.2776E2	-26.752E0
2.2821E2	-43.135E0
2.2867E2	-26.524E0
2.2912E2	-13.554E0
2.2957E2	-31.53E0
2.3002E2	-34.943E0
2.3047E2	-22.656E0
2.3093E2	-52.465E0
2.3138E2	-30.848E0
2.3183E2	-17.65E0
2.3228E2	-11.506E0
2.3273E2	-36.081E0
2.3318E2	-29.482E0
2.3364E2	-35.171E0
2.3409E2	-26.069E0
2.3454E2	-30.848E0
2.3499E2	-40.177E0
2.3544E2	-28.572E0
2.3589E2	-10.823E0
2.3635E2	-38.129E0
2.368E2	-22.656E0
2.3725E2	-30.392E0
2.377E2	-37.447E0
2.3815E2	-41.087E0
2.386E2	-29.255E0
2.3905E2	-19.015E0
2.3951E2	-24.704E0
2.3996E2	-34.716E0
2.4041E2	-27.889E0
2.4086E2	-17.65E0
2.4131E2	-32.895E0
2.4176E2	-43.363E0
2.4221E2	-20.608E0
2.4266E2	-15.829E0
2.4312E2	-40.86E0
2.4357E2	-36.764E0
2.4402E2	-21.29E0
2.4447E2	-23.338E0
2.4492E2	-25.841E0
2.4537E2	-23.566E0
2.4582E2	-37.902E0
2.4627E2	-34.488E0
2.4672E2	-26.069E0
2.4717E2	-38.812E0
2.4763E2	-30.848E0
2.4808E2	-25.159E0
2.4853E2	-19.925E0
2.4898E2	-29.027E0
2.4943E2	-34.033E0
2.4988E2	-28.80E0
2.5033E2	-13.554E0
2.5078E2	-52.465E0
2.5123E2	-40.177E0
2.5168E2	-35.171E0
2.5213E2	-36.536E0
2.5258E2	-12.871E0
2.5303E2	-17.194E0
2.5348E2	-34.716E0
2.5393E2	-6.727E0
2.5438E2	-20.608E0
2.5484E2	-32.213E0
2.5529E2	-19.925E0
2.5574E2	-39.039E0
2.5619E2	-33.123E0
2.5664E2	-36.536E0
2.5709E2	-39.722E0
2.5754E2	-33.351E0
2.5799E2	-29.937E0
2.5844E2	10.795E0
2.5889E2	-10.823E0
2.5934E2	-41.542E0
2.5979E2	-44.728E0
2.6024E2	-36.536E0
2.6069E2	-22.656E0
2.6114E2	-39.039E0
2.6159E2	-27.434E0
2.6204E2	-20.38E0
2.6249E2	-28.572E0
2.6294E2	-31.075E0
2.6339E2	-19.925E0
2.6384E2	-23.338E0
2.6429E2	-19.47E0
2.6474E2	-15.829E0
2.6519E2	-32.668E0
2.6564E2	-21.973E0
2.6609E2	-32.668E0
2.6654E2	-44.273E0
2.6699E2	-19.015E0
2.6744E2	-13.098E0
2.6789E2	-49.279E0
2.6833E2	-27.207E0
2.6878E2	-14.919E0
2.6923E2	-28.80E0
2.6968E2	-9.9127E0
2.7013E2	-27.889E0
2.7058E2	-11.733E0
2.7103E2	-21.973E0
2.7148E2	-22.656E0
2.7193E2	-22.883E0
2.7238E2	-27.434E0
2.7283E2	-58.836E0
2.7328E2	-57.016E0
2.7373E2	-32.44E0
2.7418E2	-46.776E0
2.7463E2	-21.518E0
2.7507E2	-19.015E0
2.7552E2	-6.2719E0
2.7597E2	-9.9127E0
2.7642E2	-38.584E0
2.7687E2	-27.434E0
2.7732E2	-29.255E0
2.7777E2	-38.129E0
2.7822E2	-28.572E0
2.7867E2	-36.081E0
2.7912E2	-45.866E0
2.7956E2	-23.111E0
2.8001E2	-21.973E0
2.8046E2	-49.052E0
2.8091E2	-18.105E0
2.8136E2	-22.428E0
2.8181E2	-18.105E0
2.8226E2	-21.063E0
2.8271E2	-27.207E0
2.8315E2	-35.854E0
2.836E2	-32.668E0
2.8405E2	-36.991E0
2.845E2	-33.578E0
2.8495E2	-20.38E0
2.854E2	-11.733E0
2.8585E2	-13.554E0
2.8629E2	-27.662E0
2.8674E2	-22.201E0
2.8719E2	-7.8648E0
2.8764E2	-32.895E0
2.8809E2	-16.284E0
2.8854E2	-19.47E0
2.8898E2	-31.303E0
2.8943E2	-26.524E0
2.8988E2	-22.656E0
2.9033E2	-14.464E0
2.9078E2	-23.338E0
2.9122E2	-21.063E0
2.9167E2	-19.015E0
2.9212E2	-4.9066E0
2.9257E2	-44.273E0
2.9302E2	-11.05E0
2.9346E2	-14.691E0
2.9391E2	-47.459E0
2.9436E2	-31.985E0
2.9481E2	-13.326E0
2.9526E2	-7.6372E0
2.957E2	-35.399E0
2.9615E2	-23.111E0
2.966E2	-34.716E0
2.9705E2	-40.632E0
2.9749E2	-9.4576E0
2.9794E2	-21.063E0
2.9839E2	-8.775E0
2.9884E2	-31.53E0
2.9928E2	-5.5892E0
2.9973E2	-24.704E0
3.0018E2	-38.812E0
3.0063E2	-32.668E0
3.0107E2	-23.566E0
3.0152E2	-21.518E0
3.0197E2	-49.962E0
3.0242E2	-21.063E0
3.0286E2	-26.752E0
3.0331E2	-18.332E0
3.0376E2	-9.0025E0
3.0421E2	-40.632E0
3.0465E2	-34.261E0
3.051E2	-6.727E0
3.0555E2	-7.1821E0
3.0599E2	-31.53E0
3.0644E2	-8.5474E0
3.0689E2	-10.823E0
3.0734E2	-24.931E0
3.0778E2	-8.0923E0
3.0823E2	-32.895E0
3.0868E2	-32.213E0
3.0912E2	-23.338E0
3.0957E2	-25.159E0
3.1002E2	-36.536E0
3.1046E2	-46.094E0
3.1091E2	-48.141E0
3.1136E2	-27.662E0
3.118E2	-12.871E0
3.1225E2	-24.476E0
3.127E2	-20.38E0
3.1314E2	-28.344E0
3.1359E2	-42.68E0
3.1404E2	-28.344E0
3.1448E2	-31.985E0
3.1493E2	-4.2239E0
3.1538E2	-37.902E0
3.1582E2	5.3333E0
3.1627E2	-26.524E0
3.1672E2	-19.242E0
3.1716E2	-2.4035E0
3.1761E2	-32.213E0
3.1805E2	-41.542E0
3.185E2	-37.902E0
3.1895E2	-48.597E0
3.1939E2	-31.075E0
3.1984E2	-26.069E0
3.2029E2	-29.027E0
3.2073E2	1.2373E0
3.2118E2	-13.326E0
3.2162E2	-29.71E0
3.2207E2	-35.171E0
3.2252E2	-25.386E0
3.2296E2	-37.902E0
3.2341E2	-26.296E0
3.2385E2	-17.65E0
3.243E2	-21.745E0
3.2474E2	-23.338E0
3.2519E2	-43.818E0
3.2564E2	-25.386E0
3.2608E2	-28.344E0
3.2653E2	-22.656E0
3.2697E2	-5.5892E0
3.2742E2	-31.303E0
3.2786E2	-27.889E0
3.2831E2	-37.447E0
3.2876E2	-15.146E0
3.292E2	-24.476E0
3.2965E2	-27.662E0
3.3009E2	-25.159E0
3.3054E2	-14.691E0
3.3098E2	-36.764E0
3.3143E2	-19.242E0
3.3187E2	-14.464E0
3.3232E2	-19.697E0
3.3276E2	-16.512E0
3.3321E2	-30.848E0
3.3365E2	-14.919E0
3.341E2	-45.411E0
3.3454E2	15.573E0
3.3499E2	-25.159E0
3.3543E2	-29.482E0
3.3588E2	-10.823E0
3.3632E2	-34.716E0
3.3677E2	-11.05E0
3.3721E2	-22.201E0
3.3766E2	-20.835E0
3.381E2	-28.80E0
3.3855E2	-16.284E0
3.3899E2	-17.194E0
3.3944E2	-20.153E0
3.3988E2	-28.572E0
3.4033E2	-9.4576E0
3.4077E2	-28.80E0
3.4122E2	-9.0025E0
3.4166E2	-30.165E0
3.4211E2	-14.009E0
3.4255E2	-24.931E0
3.430E2	-15.829E0
3.4344E2	-23.566E0
3.4388E2	-36.536E0
3.4433E2	-21.063E0
3.4477E2	-22.428E0
3.4522E2	-29.482E0
3.4566E2	-27.662E0
3.4611E2	-13.326E0
3.4655E2	2.1475E0
3.470E2	-19.47E0
3.4744E2	-13.781E0
3.4788E2	-29.937E0
3.4833E2	-34.261E0
3.4877E2	6.0159E0
3.4922E2	-19.925E0
3.4966E2	-26.752E0
3.501E2	-81.065E-2
3.5055E2	-20.835E0
3.5099E2	-16.739E0
3.5144E2	-21.063E0
3.5188E2	-24.249E0
3.5232E2	-32.895E0
3.5277E2	-21.29E0
3.5321E2	-21.745E0
3.5365E2	-21.518E0
3.541E2	-27.434E0
3.5454E2	-12.871E0
3.5499E2	-30.392E0
3.5543E2	-35.555E-2
3.5587E2	-29.255E0
3.5632E2	-42.68E0
3.5676E2	-19.925E0
3.572E2	-6.727E0
3.5765E2	-11.733E0
3.5809E2	-8.775E0
3.5853E2	-9.4576E0
3.5898E2	-10.823E0
3.5942E2	-21.518E0
3.5986E2	-29.255E0
3.6031E2	-11.961E0
3.6075E2	-19.697E0
3.6119E2	21.262E0
3.6164E2	-22.201E0
3.6208E2	-24.249E0
3.6252E2	-19.697E0
3.6297E2	-18.56E0
3.6341E2	-20.608E0
3.6385E2	-19.925E0
3.6429E2	-40.177E0
3.6474E2	-19.925E0
3.6518E2	-32.44E0
3.6562E2	-11.733E0
3.6607E2	-31.985E0
3.6651E2	-18.332E0
3.6695E2	-28.117E0
3.6739E2	-11.506E0
3.6784E2	-19.015E0
3.6828E2	-30.165E0
3.6872E2	-32.44E0
3.6916E2	-27.207E0
3.6961E2	-15.374E0
3.7005E2	-33.578E0
3.7049E2	-21.745E0
3.7093E2	-6.2719E0
3.7138E2	-21.29E0
3.7182E2	-22.428E0
3.7226E2	-19.015E0
3.727E2	-12.80E-2
3.7315E2	-26.979E0
3.7359E2	-24.704E0
3.7403E2	-21.29E0
3.7447E2	-15.146E0
3.7492E2	-35.555E-2
3.7536E2	-5.3617E0
3.758E2	-16.967E0
3.7624E2	-6.4995E0
3.7668E2	-15.829E0
3.7713E2	8.9741E0
3.7757E2	-9.4576E0
3.7801E2	5.1057E0
3.7845E2	-11.05E0
3.7889E2	-13.098E0
3.7934E2	-4.4515E0
3.7978E2	17.849E0
3.8022E2	-7.8648E0
3.8066E2	-15.602E0
3.811E2	-26.524E0
3.8154E2	-16.512E0
3.8199E2	5.3333E0
3.8243E2	-18.787E0
3.8287E2	-19.925E0
3.8331E2	-16.512E0
3.8375E2	-22.428E0
3.8419E2	-3.7688E0
3.8463E2	-10.823E0
3.8508E2	6.6986E0
3.8552E2	-13.326E0
3.8596E2	-1.7209E0
3.864E2	1.2373E0
3.8684E2	6.471E0
3.8728E2	55.466E-2
3.8772E2	-1.7209E0
3.8816E2	8.0639E0
3.8861E2	11.705E0
3.8905E2	7.1537E0
3.8949E2	-35.555E-2
3.8993E2	3.5128E0
3.9037E2	-6.727E0
3.9081E2	5.5608E0
3.9125E2	-16.739E0
3.9169E2	18.759E0
3.9213E2	-3.7688E0
3.9257E2	-21.063E0
3.9301E2	-5.1341E0
3.9346E2	5.3333E0
3.939E2	21.717E0
3.9434E2	-1.4933E0
3.9478E2	12.615E0
3.9522E2	-1.2658E0
3.9566E2	1.4649E0
3.961E2	14.208E0
3.9654E2	55.466E-2
3.9698E2	26.496E0
3.9742E2	8.0639E0
3.9786E2	-4.679E0
3.983E2	6.6986E0
3.9874E2	8.0639E0
3.9918E2	31.274E0
3.9962E2	10.112E0
4.0006E2	23.082E0
4.005E2	40.604E0
4.0094E2	37.191E0
4.0138E2	41.742E0
4.0182E2	19.669E0
4.0226E2	17.394E0
4.027E2	23.082E0
4.0314E2	45.155E0
4.0358E2	31.047E0
4.0402E2	50.844E0
4.0446E2	49.023E0
4.049E2	44.472E0
4.0534E2	57.898E0
4.0578E2	45.382E0
4.0622E2	71.096E0
4.0666E2	74.737E0
4.071E2	74.054E0
4.0754E2	81.108E0
4.0798E2	78.833E0
4.0842E2	87.707E0
4.0886E2	92.031E0
4.093E2	1.1888E2
4.0974E2	1.3026E2
4.1018E2	1.2707E2
4.1062E2	1.2116E2
4.1106E2	1.3504E2
4.115E2	1.3436E2
4.1194E2	1.7099E2
4.1237E2	1.5939E2
4.1281E2	1.7759E2
4.1325E2	1.9625E2
4.1369E2	2.1809E2
4.1413E2	2.388E2
4.1457E2	2.4722E2
4.1501E2	2.4472E2
4.1545E2	2.8477E2
4.1589E2	3.0479E2
4.1633E2	3.3346E2
4.1676E2	3.4962E2
4.172E2	3.8694E2
4.1764E2	3.8762E2
4.1808E2	4.1333E2
4.1852E2	4.1424E2
4.1896E2	4.593E2
4.194E2	5.0913E2
4.1984E2	5.6807E2
4.2027E2	5.8127E2
4.2071E2	6.2109E2
4.2115E2	6.5113E2
4.2159E2	6.9891E2
4.2203E2	7.624E2
4.2247E2	7.913E2
4.2291E2	8.6753E2
4.2334E2	9.3557E2
4.2378E2	9.6629E2
4.2422E2	10.539E2
4.2466E2	11.47E2
4.251E2	12.503E2
4.2554E2	12.962E2
4.2597E2	14.112E2
4.2641E2	15.147E2
4.2685E2	16.194E2
4.2729E2	17.654E2
4.2773E2	18.628E2
4.2816E2	20.67E2
4.286E2	21.91E2
4.2904E2	23.967E2
4.2948E2	25.81E2
4.2991E2	27.253E2
4.3035E2	29.631E2
4.3079E2	32.043E2
4.3123E2	34.575E2
4.3167E2	37.39E2
4.321E2	40.89E2
4.3254E2	43.368E2
4.3298E2	46.742E2
4.3342E2	49.758E2
4.3385E2	54.09E2
4.3429E2	57.164E2
4.3473E2	61.679E2
4.3517E2	65.409E2
4.356E2	69.231E2
4.3604E2	75.471E2
4.3648E2	79.248E2
4.3692E2	81.94E2
4.3735E2	84.942E2
4.3779E2	88.774E2
4.3823E2	92.487E2
4.3866E2	95.247E2
4.391E2	99.252E2
4.3954E2	99.446E2
4.3997E2	1.0414E4
4.4041E2	1.0613E4
4.4085E2	1.0702E4
4.4129E2	1.108E4
4.4172E2	1.1007E4
4.4216E2	1.1099E4
4.426E2	1.0958E4
4.4303E2	1.1155E4
4.4347E2	1.1048E4
4.4391E2	1.1118E4
4.4434E2	1.085E4
4.4478E2	1.0917E4
4.4522E2	1.0827E4
4.4565E2	1.0582E4
4.4609E2	1.0441E4
4.4653E2	1.0288E4
4.4696E2	1.0252E4
4.474E2	1.0112E4
4.4783E2	99.232E2
4.4827E2	96.328E2
4.4871E2	95.946E2
4.4914E2	92.926E2
4.4958E2	91.272E2
4.5002E2	88.837E2
4.5045E2	88.161E2
4.5089E2	88.369E2
4.5132E2	87.158E2
4.5176E2	85.128E2
4.522E2	85.149E2
4.5263E2	82.839E2
4.5307E2	82.329E2
4.535E2	81.378E2
4.5394E2	80.793E2
4.5437E2	80.35E2
4.5481E2	80.90E2
4.5525E2	79.74E2
4.5568E2	79.681E2
4.5612E2	78.597E2
4.5655E2	77.812E2
4.5699E2	77.653E2
4.5742E2	75.712E2
4.5786E2	78.165E2
4.5829E2	77.205E2
4.5873E2	77.278E2
4.5917E2	75.799E2
4.596E2	74.577E2
4.6004E2	73.446E2
4.6047E2	73.644E2
4.6091E2	72.492E2
4.6134E2	71.623E2
4.6178E2	71.958E2
4.6221E2	70.148E2
4.6265E2	69.184E2
4.6308E2	69.12E2
4.6352E2	68.308E2
4.6395E2	68.014E2
4.6439E2	67.764E2
4.6482E2	67.031E2
4.6526E2	65.984E2
4.6569E2	64.808E2
4.6613E2	65.734E2
4.6656E2	65.044E2
4.670E2	64.519E2
4.6743E2	64.512E2
4.6787E2	64.319E2
4.683E2	65.50E2
4.6873E2	67.095E2
4.6917E2	67.092E2
4.696E2	67.418E2
4.7004E2	67.368E2
4.7047E2	67.723E2
4.7091E2	68.829E2
4.7134E2	68.936E2
4.7177E2	68.644E2
4.7221E2	69.607E2
4.7264E2	70.333E2
4.7308E2	71.05E2
4.7351E2	70.988E2
4.7395E2	72.449E2
4.7438E2	74.165E2
4.7481E2	74.429E2
4.7525E2	75.132E2
4.7568E2	76.882E2
4.7612E2	78.174E2
4.7655E2	78.907E2
4.7698E2	79.348E2
4.7742E2	80.152E2
4.7785E2	80.825E2
4.7828E2	82.486E2
4.7872E2	83.654E2
4.7915E2	84.391E2
4.7959E2	84.393E2
4.8002E2	86.88E2
4.8045E2	88.004E2
4.8089E2	89.035E2
4.8132E2	89.647E2
4.8175E2	91.814E2
4.8219E2	93.27E2
4.8262E2	93.853E2
4.8305E2	95.207E2
4.8349E2	96.847E2
4.8392E2	98.815E2
4.8435E2	99.805E2
4.8479E2	1.0062E4
4.8522E2	1.0282E4
4.8565E2	1.0397E4
4.8608E2	1.0444E4
4.8652E2	1.075E4
4.8695E2	1.0891E4
4.8738E2	1.0943E4
4.8782E2	1.1285E4
4.8825E2	1.1543E4
4.8868E2	1.1784E4
4.8911E2	1.1912E4
4.8955E2	1.2045E4
4.8998E2	1.2138E4
4.9041E2	1.2392E4
4.9084E2	1.2426E4
4.9128E2	1.270E4
4.9171E2	1.277E4
4.9214E2	1.3139E4
4.9257E2	1.3363E4
4.9301E2	1.3324E4
4.9344E2	1.3493E4
4.9387E2	1.3782E4
4.943E2	1.3832E4
4.9474E2	1.3969E4
4.9517E2	1.3988E4
4.956E2	1.4437E4
4.9603E2	1.4551E4
4.9647E2	1.4766E4
4.969E2	1.4989E4
4.9733E2	1.5154E4
4.9776E2	1.5098E4
4.9819E2	1.5386E4
4.9862E2	1.532E4
4.9906E2	1.5567E4
4.9949E2	1.566E4
4.9992E2	1.5845E4
5.0035E2	1.5883E4
5.0078E2	1.5809E4
5.0122E2	1.6012E4
5.0165E2	1.6237E4
5.0208E2	1.6217E4
5.0251E2	1.6506E4
5.0294E2	1.6569E4
5.0337E2	1.6547E4
5.038E2	1.6858E4
5.0424E2	1.7049E4
5.0467E2	1.707E4
5.051E2	1.6915E4
5.0553E2	1.6796E4
5.0596E2	1.7057E4
5.0639E2	1.7264E4
5.0682E2	1.7095E4
5.0725E2	1.7276E4
5.0769E2	1.752E4
5.0812E2	1.7514E4
5.0855E2	1.7484E4
5.0898E2	1.7781E4
5.0941E2	1.7919E4
5.0984E2	1.7968E4
5.1027E2	1.7858E4
5.107E2	1.7817E4
5.1113E2	1.7997E4
5.1156E2	1.8235E4
5.1199E2	1.8076E4
5.1242E2	1.7812E4
5.1285E2	1.7919E4
5.1329E2	1.7892E4
5.1372E2	1.7986E4
5.1415E2	1.8097E4
5.1458E2	1.8014E4
5.1501E2	1.8175E4
5.1544E2	1.8171E4
5.1587E2	1.8354E4
5.163E2	1.8294E4
5.1673E2	1.8455E4
5.1716E2	1.8377E4
5.1759E2	1.823E4
5.1802E2	1.8344E4
5.1845E2	1.8287E4
5.1888E2	1.8415E4
5.1931E2	1.8105E4
5.1974E2	1.8576E4
5.2017E2	1.8729E4
5.206E2	1.8262E4
5.2103E2	1.833E4
5.2146E2	1.8676E4
5.2189E2	1.8788E4
5.2232E2	1.8775E4
5.2275E2	1.8802E4
5.2318E2	1.9205E4
5.2361E2	1.9304E4
5.2404E2	1.9194E4
5.2447E2	1.9174E4
5.2489E2	1.9064E4
5.2532E2	1.9334E4
5.2575E2	1.9276E4
5.2618E2	1.9455E4
5.2661E2	1.9522E4
5.2704E2	1.9548E4
5.2747E2	1.9369E4
5.279E2	1.9451E4
5.2833E2	1.9732E4
5.2876E2	1.9895E4
5.2919E2	1.9806E4
5.2962E2	1.9951E4
5.3004E2	1.984E4
5.3047E2	2.0128E4
5.309E2	2.0425E4
5.3133E2	2.0472E4
5.3176E2	2.0259E4
5.3219E2	2.0388E4
5.3262E2	2.0871E4
5.3305E2	2.1028E4
5.3348E2	2.1222E4
5.339E2	2.0982E4
5.3433E2	2.0831E4
5.3476E2	2.1231E4
5.3519E2	2.1285E4
5.3562E2	2.1507E4
5.3605E2	2.1638E4
5.3647E2	2.1643E4
5.369E2	2.1874E4
5.3733E2	2.2102E4
5.3776E2	2.2093E4
5.3819E2	2.2188E4
5.3862E2	2.2555E4
5.3904E2	2.2663E4
5.3947E2	2.2864E4
5.399E2	2.318E4
5.4033E2	2.3109E4
5.4076E2	2.3109E4
5.4118E2	2.3422E4
5.4161E2	2.3198E4
5.4204E2	2.3327E4
5.4247E2	2.3627E4
5.4289E2	2.3697E4
5.4332E2	2.3651E4
5.4375E2	2.3742E4
5.4418E2	2.3619E4
5.4461E2	2.4117E4
5.4503E2	2.4473E4
5.4546E2	2.4853E4
5.4589E2	2.4751E4
5.4632E2	2.4559E4
5.4674E2	2.4573E4
5.4717E2	2.4921E4
5.476E2	2.5244E4
5.4802E2	2.5341E4
5.4845E2	2.5808E4
5.4888E2	2.5976E4
5.4931E2	2.6131E4
5.4973E2	2.6171E4
5.5016E2	2.6186E4
5.5059E2	2.660E4
5.5101E2	2.7084E4
5.5144E2	2.6991E4
5.5187E2	2.698E4
5.5229E2	2.7137E4
5.5272E2	2.7187E4
5.5315E2	2.7348E4
5.5357E2	2.7183E4
5.540E2	2.723E4
5.5443E2	2.7365E4
5.5485E2	2.7485E4
5.5528E2	2.7821E4
5.5571E2	2.8108E4
5.5613E2	2.8126E4
5.5656E2	2.8184E4
5.5699E2	2.8369E4
5.5741E2	2.8159E4
5.5784E2	2.8385E4
5.5827E2	2.8386E4
5.5869E2	2.851E4
5.5912E2	2.8597E4
5.5954E2	2.8386E4
5.5997E2	2.810E4
5.604E2	2.8379E4
5.6082E2	2.8722E4
5.6125E2	2.8666E4
5.6167E2	2.8629E4
5.621E2	2.8782E4
5.6253E2	2.8689E4
5.6295E2	2.841E4
5.6338E2	2.8752E4
5.638E2	2.8454E4
5.6423E2	2.8681E4
5.6465E2	2.8683E4
5.6508E2	2.8878E4
5.6551E2	2.9055E4
5.6593E2	2.8682E4
5.6636E2	2.8877E4
5.6678E2	2.8911E4
5.6721E2	2.9112E4
5.6763E2	2.9098E4
5.6806E2	2.8739E4
5.6848E2	2.9068E4
5.6891E2	2.8901E4
5.6933E2	2.8786E4
5.6976E2	2.9165E4
5.7018E2	2.9269E4
5.7061E2	2.9257E4
5.7103E2	2.962E4
5.7146E2	2.9529E4
5.7188E2	2.9289E4
5.7231E2	2.9533E4
5.7273E2	2.9753E4
5.7316E2	3.0116E4
5.7358E2	2.9591E4
5.7401E2	2.9823E4
5.7443E2	2.9672E4
5.7486E2	2.988E4
5.7528E2	3.0142E4
5.7571E2	3.0123E4
5.7613E2	3.0232E4
5.7655E2	3.0143E4
5.7698E2	3.0644E4
5.774E2	3.0146E4
5.7783E2	3.0235E4
5.7825E2	3.0891E4
5.7868E2	3.0922E4
5.791E2	3.0879E4
5.7952E2	3.0651E4
5.7995E2	3.0817E4
5.8037E2	3.1206E4
5.808E2	3.148E4
5.8122E2	3.1135E4
5.8164E2	3.1025E4
5.8207E2	3.1059E4
5.8249E2	3.1496E4
5.8291E2	3.1204E4
5.8334E2	3.1046E4
5.8376E2	3.1327E4
5.8419E2	3.1259E4
5.8461E2	3.1177E4
5.8503E2	3.1141E4
5.8546E2	3.1082E4
5.8588E2	3.1302E4
5.863E2	3.1234E4
5.8673E2	3.1047E4
5.8715E2	3.0831E4
5.8757E2	3.1284E4
5.880E2	3.1578E4
5.8842E2	3.1365E4
5.8884E2	3.104E4
5.8927E2	3.1479E4
5.8969E2	3.1744E4
5.9011E2	3.1248E4
5.9054E2	3.1183E4
5.9096E2	3.1058E4
5.9138E2	3.1007E4
5.918E2	3.0948E4
5.9223E2	3.1041E4
5.9265E2	3.1573E4
5.9307E2	3.1373E4
5.9349E2	3.1109E4
5.9392E2	3.1062E4
5.9434E2	3.0957E4
5.9476E2	3.1009E4
5.9519E2	3.0877E4
5.9561E2	3.1316E4
5.9603E2	3.129E4
5.9645E2	3.124E4
5.9687E2	3.1179E4
5.973E2	3.1294E4
5.9772E2	3.1056E4
5.9814E2	3.0901E4
5.9856E2	3.1335E4
5.9899E2	3.1854E4
5.9941E2	3.1767E4
5.9983E2	3.1886E4
6.0025E2	3.1611E4
6.0067E2	3.1513E4
6.011E2	3.155E4
6.0152E2	3.1563E4
6.0194E2	3.1564E4
6.0236E2	3.1632E4
6.0278E2	3.1544E4
6.032E2	3.1776E4
6.0363E2	3.1314E4
6.0405E2	3.1269E4
6.0447E2	3.1415E4
6.0489E2	3.1158E4
6.0531E2	3.0509E4
6.0573E2	3.0044E4
6.0615E2	3.0084E4
6.0658E2	3.0269E4
6.070E2	3.0177E4
6.0742E2	2.958E4
6.0784E2	2.9267E4
6.0826E2	2.9052E4
6.0868E2	2.905E4
6.091E2	2.8597E4
6.0952E2	2.8559E4
6.0995E2	2.8474E4
6.1037E2	2.8207E4
6.1079E2	2.7815E4
6.1121E2	2.7447E4
6.1163E2	2.723E4
6.1205E2	2.6739E4
6.1247E2	2.6855E4
6.1289E2	2.6533E4
6.1331E2	2.6175E4
6.1373E2	2.5587E4
6.1415E2	2.4935E4
6.1457E2	2.4327E4
6.1499E2	2.4534E4
6.1541E2	2.4619E4
6.1583E2	2.4344E4
6.1625E2	2.4047E4
6.1667E2	2.3894E4
6.1709E2	2.347E4
6.1751E2	2.3013E4
6.1794E2	2.2886E4
6.1836E2	2.2379E4
6.1878E2	2.2407E4
6.192E2	2.2191E4
6.1962E2	2.1882E4
6.2003E2	2.1831E4
6.2045E2	2.1727E4
6.2087E2	2.1264E4
6.2129E2	2.1139E4
6.2171E2	2.1141E4
6.2213E2	2.0895E4
6.2255E2	2.051E4
6.2297E2	2.0402E4
6.2339E2	2.0338E4
6.2381E2	2.0153E4
6.2423E2	1.9779E4
6.2465E2	1.9399E4
6.2507E2	1.9172E4
6.2549E2	1.8992E4
6.2591E2	1.880E4
6.2633E2	1.8747E4
6.2675E2	1.8615E4
6.2717E2	1.8277E4
6.2759E2	1.8268E4
6.280E2	1.8114E4
6.2842E2	1.8096E4
6.2884E2	1.7585E4
6.2926E2	1.7188E4
6.2968E2	1.6968E4
6.301E2	1.7269E4
6.3052E2	1.6901E4
6.3094E2	1.6573E4
6.3135E2	1.6457E4
6.3177E2	1.6066E4
6.3219E2	1.6195E4
6.3261E2	1.5955E4
6.3303E2	1.5627E4
6.3345E2	1.5655E4
6.3387E2	1.5476E4
6.3428E2	1.515E4
6.347E2	1.527E4
6.3512E2	1.5078E4
6.3554E2	1.4868E4
6.3596E2	1.4705E4
6.3638E2	1.4443E4
6.3679E2	1.4238E4
6.3721E2	1.4312E4
6.3763E2	1.4106E4
6.3805E2	1.4111E4
6.3847E2	1.3957E4
6.3888E2	1.3759E4
6.393E2	1.3613E4
6.3972E2	1.3507E4
6.4014E2	1.3378E4
6.4055E2	1.3136E4
6.4097E2	1.2862E4
6.4139E2	1.276E4
6.4181E2	1.2581E4
6.4222E2	1.2351E4
6.4264E2	1.2577E4
6.4306E2	1.2372E4
6.4348E2	1.219E4
6.4389E2	1.1969E4
6.4431E2	1.1838E4
6.4473E2	1.1757E4
6.4515E2	1.147E4
6.4556E2	1.1294E4
6.4598E2	1.1136E4
6.464E2	1.1163E4
6.4681E2	1.1021E4
6.4723E2	1.0679E4
6.4765E2	1.047E4
6.4806E2	1.0437E4
6.4848E2	1.0353E4
6.489E2	1.0164E4
6.4931E2	1.0102E4
6.4973E2	98.611E2
6.5015E2	96.702E2
6.5056E2	94.274E2
6.5098E2	93.657E2
6.514E2	92.612E2
6.5181E2	91.42E2
6.5223E2	90.025E2
6.5265E2	90.478E2
6.5306E2	89.113E2
6.5348E2	86.732E2
6.5389E2	85.094E2
6.5431E2	84.942E2
6.5473E2	82.282E2
6.5514E2	80.814E2
6.5556E2	80.90E2
6.5597E2	78.823E2
6.5639E2	77.353E2
6.5681E2	75.753E2
6.5722E2	74.695E2
6.5764E2	73.27E2
6.5805E2	72.877E2
6.5847E2	71.395E2
6.5889E2	70.462E2
6.593E2	68.005E2
6.5972E2	66.578E2
6.6013E2	66.116E2
6.6055E2	65.629E2
6.6096E2	64.765E2
6.6138E2	62.389E2
6.6179E2	63.033E2
6.6221E2	60.227E2
6.6262E2	59.84E2
6.6304E2	59.048E2
6.6345E2	58.282E2
6.6387E2	57.014E2
6.6428E2	56.509E2
6.647E2	55.157E2
6.6511E2	54.475E2
6.6553E2	53.758E2
6.6594E2	52.625E2
6.6636E2	52.393E2
6.6677E2	50.886E2
6.6719E2	50.807E2
6.676E2	49.751E2
6.6802E2	48.813E2
6.6843E2	48.258E2
6.6885E2	47.703E2
6.6926E2	46.13E2
6.6967E2	46.258E2
6.7009E2	44.977E2
6.705E2	43.773E2
6.7092E2	43.017E2
6.7133E2	42.442E2
6.7175E2	40.71E2
6.7216E2	40.731E2
6.7257E2	40.052E2
6.7299E2	39.297E2
6.734E2	38.667E2
6.7382E2	38.043E2
6.7423E2	38.432E2
6.7464E2	37.11E2
6.7506E2	36.157E2
6.7547E2	35.429E2
6.7588E2	34.254E2
6.763E2	33.774E2
6.7671E2	32.693E2
6.7713E2	32.443E2
6.7754E2	32.55E2
6.7795E2	32.156E2
6.7837E2	31.176E2
6.7878E2	30.83E2
6.7919E2	30.748E2
6.7961E2	29.901E2
6.8002E2	29.694E2
6.8043E2	28.939E2
6.8085E2	28.19E2
6.8126E2	26.854E2
6.8167E2	27.125E2
6.8208E2	27.023E2
6.825E2	26.322E2
6.8291E2	26.276E2
6.8332E2	25.605E2
6.8374E2	25.348E2
6.8415E2	24.504E2
6.8456E2	24.961E2
6.8497E2	23.901E2
6.8539E2	23.896E2
6.858E2	23.468E2
6.8621E2	23.113E2
6.8662E2	22.485E2
6.8704E2	21.734E2
6.8745E2	21.375E2
6.8786E2	21.111E2
6.8827E2	21.075E2
6.8869E2	20.786E2
6.891E2	20.219E2
6.8951E2	19.857E2
6.8992E2	19.734E2
6.9033E2	19.309E2
6.9075E2	19.054E2
6.9116E2	18.861E2
6.9157E2	18.644E2
6.9198E2	17.984E2
6.9239E2	17.609E2
6.928E2	17.177E2
6.9322E2	16.803E2
6.9363E2	16.576E2
6.9404E2	16.549E2
6.9445E2	16.241E2
6.9486E2	16.357E2
6.9527E2	16.068E2
6.9568E2	15.60E2
6.961E2	15.054E2
6.9651E2	15.095E2
6.9692E2	14.806E2
6.9733E2	15.097E2
6.9774E2	14.519E2
6.9815E2	14.391E2
6.9856E2	13.859E2
6.9897E2	13.534E2
6.9939E2	13.402E2
6.998E2	13.279E2
7.0021E2	13.156E2
7.0062E2	12.626E2
7.0103E2	12.462E2
7.0144E2	12.487E2
7.0185E2	12.223E2
7.0226E2	11.745E2
7.0267E2	11.645E2
7.0308E2	11.577E2
7.0349E2	11.663E2
7.039E2	11.349E2
7.0431E2	10.871E2
7.0472E2	11.115E2
7.0513E2	10.903E2
7.0554E2	10.673E2
7.0595E2	10.468E2
7.0636E2	10.355E2
7.0677E2	10.061E2
7.0718E2	9.6538E2
7.0759E2	9.7106E2
7.080E2	9.5855E2
7.0841E2	9.3079E2
7.0882E2	9.3329E2
7.0923E2	8.7344E2
7.0964E2	8.780E2
7.1005E2	8.5615E2
7.1046E2	8.541E2
7.1087E2	8.5365E2
7.1128E2	8.3066E2
7.1169E2	7.7309E2
7.121E2	8.1064E2
7.1251E2	8.1542E2
7.1292E2	7.963E2
7.1333E2	7.5944E2
7.1374E2	7.5534E2
7.1415E2	7.3646E2
7.1455E2	6.930E2
7.1496E2	6.9413E2
7.1537E2	6.5864E2
7.1578E2	6.8412E2
7.1619E2	6.5909E2
7.166E2	6.534E2
7.1701E2	6.2928E2
7.1742E2	6.4953E2
7.1783E2	6.2473E2
7.1823E2	6.0357E2
7.1864E2	6.1358E2
7.1905E2	5.8309E2
7.1946E2	5.4713E2
7.1987E2	5.4713E2
7.2028E2	5.6716E2
7.2069E2	5.4691E2
7.2109E2	5.4645E2
7.215E2	5.3075E2
7.2191E2	5.3485E2
7.2232E2	5.064E2
7.2273E2	5.0117E2
7.2313E2	4.7182E2
7.2354E2	4.7204E2
7.2395E2	4.8319E2
7.2436E2	4.5293E2
7.2477E2	4.4792E2
7.2517E2	4.4815E2
7.2558E2	4.3359E2
7.2599E2	4.3222E2
7.264E2	4.1538E2
7.268E2	3.9194E2
7.2721E2	4.0628E2
7.2762E2	3.726E2
7.2803E2	3.7351E2
7.2843E2	3.742E2
7.2884E2	3.4621E2
7.2925E2	3.6373E2
7.2966E2	3.5736E2
7.3006E2	3.5485E2
7.3047E2	3.5417E2
7.3088E2	3.4962E2
7.3129E2	3.4029E2
7.3169E2	3.2254E2
7.321E2	3.230E2
7.3251E2	3.1207E2
7.3291E2	3.0001E2
7.3332E2	3.0274E2
7.3373E2	3.0206E2
7.3413E2	2.9114E2
7.3454E2	2.6975E2
7.3495E2	2.6747E2
7.3535E2	2.5541E2
7.3576E2	2.8499E2
7.3617E2	2.6269E2
7.3657E2	2.5837E2
7.3698E2	2.6588E2
7.3738E2	2.5314E2
7.3779E2	2.4404E2
7.382E2	2.4244E2
7.386E2	2.7043E2
7.3901E2	2.3106E2
7.3942E2	2.636E2
7.3982E2	2.3243E2
7.4023E2	2.1741E2
7.4063E2	2.2356E2
7.4104E2	2.1946E2
7.4145E2	2.3152E2
7.4185E2	2.1536E2
7.4226E2	2.0808E2
7.4266E2	2.206E2
7.4307E2	2.3061E2
7.4347E2	1.8419E2
7.4388E2	2.1491E2
7.4428E2	1.7054E2
7.4469E2	1.8442E2
7.4509E2	1.6917E2
7.455E2	1.7736E2
7.4591E2	1.7167E2
7.4631E2	1.7236E2
7.4672E2	1.7827E2
7.4712E2	1.6052E2
7.4753E2	1.3731E2
7.4793E2	1.5734E2
7.4834E2	1.3868E2
7.4874E2	1.2321E2
7.4915E2	1.4551E2
7.4955E2	1.3094E2
7.4995E2	1.3049E2
7.5036E2	1.1888E2
7.5076E2	1.3162E2
7.5117E2	1.2252E2
7.5157E2	1.0273E2
7.5198E2	1.0864E2
7.5238E2	1.1706E2
7.5279E2	1.1365E2
7.5319E2	1.1342E2
7.5359E2	1.2207E2
7.540E2	1.1137E2
7.544E2	1.1865E2
7.5481E2	1.0068E2
7.5521E2	1.1251E2
7.5562E2	87.252E0
7.5602E2	92.713E0
7.5642E2	82.473E0
7.5683E2	1.0864E2
7.5723E2	74.282E0
7.5763E2	79.743E0
7.5804E2	80.881E0
7.5844E2	90.21E0
7.5885E2	1.075E2
7.5925E2	77.695E0
7.5965E2	74.282E0
7.6006E2	58.125E0
7.6046E2	67.455E0
7.6086E2	63.587E0
7.6127E2	82.929E0
7.6167E2	63.359E0
7.6207E2	54.485E0
7.6248E2	80.653E0
7.6288E2	46.065E0
7.6328E2	54.257E0
7.6368E2	57.898E0
7.6409E2	65.179E0
7.6449E2	41.286E0
7.6489E2	60.401E0
7.653E2	66.317E0
7.657E2	80.198E0
7.661E2	73.144E0
7.665E2	69.503E0
7.6691E2	77.695E0
7.6731E2	58.353E0
7.6771E2	69.275E0
7.6811E2	50.389E0
7.6852E2	47.43E0
7.6892E2	59.263E0
7.6932E2	37.873E0
7.6972E2	56.532E0
7.7012E2	31.957E0
7.7053E2	21.262E0
7.7093E2	42.879E0
7.7133E2	41.059E0
7.7173E2	46.975E0
7.7213E2	18.759E0
7.7254E2	44.245E0
7.7294E2	54.94E0
7.7334E2	36.053E0
7.7374E2	25.358E0
7.7414E2	39.466E0
7.7454E2	14.89E0
7.7495E2	18.759E0
7.7535E2	24.675E0
7.7575E2	20.352E0
7.7615E2	46.975E0
7.7655E2	22.627E0
7.7695E2	26.268E0
7.7735E2	16.256E0
7.7775E2	28.544E0
7.7816E2	25.358E0
7.7856E2	10.567E0
7.7896E2	43.107E0
7.7936E2	27.406E0
7.7976E2	40.831E0
7.8016E2	33.095E0
7.8056E2	17.849E0
7.8096E2	2.8302E0
7.8136E2	8.2914E0
7.8176E2	17.621E0
7.8216E2	19.214E0
7.8256E2	4.1955E0
7.8296E2	11.705E0
7.8337E2	8.7465E0
7.8377E2	10.339E0
7.8417E2	9.9554E-2
7.8457E2	-35.555E-2
7.8497E2	-1.7209E0
7.8537E2	-81.065E-2
7.8577E2	13.298E0
7.8617E2	-19.697E0
7.8657E2	21.034E0
7.8697E2	12.387E0
7.8737E2	15.573E0
7.8777E2	20.124E0
7.8817E2	-6.0444E0
7.8857E2	3.2853E0
7.8896E2	-5.8168E0
7.8936E2	15.346E0
7.8976E2	-6.0444E0
7.9016E2	-18.787E0
7.9056E2	4.6506E0
7.9096E2	-1.9484E0
7.9136E2	-16.967E0
7.9176E2	-4.9066E0
7.9216E2	-12.416E0
7.9256E2	-10.595E0
7.9296E2	4.8781E0
7.9336E2	8.9741E0
7.9376E2	2.3751E0
7.9416E2	-15.829E0
7.9455E2	-8.775E0
7.9495E2	-20.153E0
7.9535E2	-6.727E0
7.9575E2	-1.0382E0
7.9615E2	-8.775E0
7.9655E2	-2.8586E0
7.9695E2	9.9554E-2
7.9734E2	-6.727E0
7.9774E2	-5.8168E0
7.9814E2	-81.065E-2
7.9854E2	-4.4515E0
7.9894E2	-2.176E0
7.9934E2	-29.71E0
7.9973E2	-8.775E0
8.0013E2	-8.0923E0
8.0053E2	-21.063E0
8.0093E2	-18.332E0
8.0133E2	-20.835E0
8.0172E2	-12.188E0
8.0212E2	-5.8168E0
8.0252E2	-6.4995E0
8.0292E2	-15.146E0
8.0332E2	-9.9127E0
8.0371E2	-7.4097E0
8.0411E2	-23.111E0
8.0451E2	-3.3137E0
8.0491E2	4.423E0
8.053E2	-9.2301E0
8.057E2	-3.5413E0
8.061E2	-18.332E0
8.065E2	-10.595E0
8.0689E2	-2.6311E0
8.0729E2	-1.0382E0
8.0769E2	-15.146E0
8.0808E2	-20.153E0
8.0848E2	-13.098E0
8.0888E2	-8.5474E0
8.0928E2	-1.4933E0
8.0967E2	-23.793E0
8.1007E2	-9.9127E0
8.1047E2	-1.9484E0
8.1086E2	-3.5413E0
8.1126E2	-6.727E0
8.1166E2	-8.0923E0
8.1205E2	-6.0444E0
8.1245E2	-21.063E0
8.1284E2	-24.704E0
8.1324E2	-24.476E0
8.1364E2	-16.057E0
8.1403E2	-23.111E0
8.1443E2	-4.9066E0
8.1483E2	-2.8586E0
8.1522E2	-21.29E0
8.1562E2	-8.0923E0
8.1601E2	9.2016E0
8.1641E2	-7.4097E0
8.1681E2	-16.057E0
8.172E2	14.208E0
8.176E2	-13.554E0
8.1799E2	-21.29E0
8.1839E2	-33.123E0
8.1878E2	-22.656E0
8.1918E2	-34.943E0
8.1957E2	2.6026E0
8.1997E2	-29.71E0
8.2037E2	-12.871E0
8.2076E2	-27.207E0
8.2116E2	-37.902E0
8.2155E2	-7.4097E0
8.2195E2	-25.386E0
8.2234E2	-24.931E0
8.2274E2	-18.332E0
8.2313E2	-10.595E0
8.2353E2	-29.71E0
8.2392E2	-5.3617E0
8.2432E2	-9.4576E0
8.2471E2	-1.4933E0
8.2511E2	-31.303E0
8.255E2	-26.752E0
8.2589E2	-34.033E0
8.2629E2	-27.889E0
8.2668E2	-26.524E0
8.2708E2	-25.159E0
8.2747E2	-31.758E0
8.2787E2	-17.422E0
8.2826E2	-28.80E0
8.2866E2	-11.278E0
8.2905E2	-10.595E0
8.2944E2	9.4292E0
8.2984E2	-33.578E0
8.3023E2	-43.363E0
8.3063E2	-31.53E0
8.3102E2	-19.015E0
8.3141E2	-23.793E0
8.3181E2	-6.0444E0
8.322E2	-41.087E0
8.3259E2	-6.727E0
8.3299E2	-20.835E0
8.3338E2	-26.752E0
8.3378E2	-41.087E0
8.3417E2	-19.242E0
8.3456E2	-33.351E0
8.3496E2	-21.063E0
8.3535E2	-11.961E0
8.3574E2	2.3751E0
8.3613E2	-21.29E0
8.3653E2	-23.111E0
8.3692E2	-39.039E0
8.3731E2	-20.38E0
8.3771E2	-3.0862E0
8.381E2	-13.554E0
8.3849E2	-11.733E0
8.3889E2	-42.908E0
8.3928E2	-15.146E0
8.3967E2	-22.201E0
8.4006E2	-31.758E0
8.4046E2	-7.1821E0
8.4085E2	-20.38E0
8.4124E2	-32.213E0
8.4163E2	-25.841E0
8.4203E2	-25.386E0
8.4242E2	-24.931E0
8.4281E2	-16.057E0
8.432E2	-29.482E0
8.4359E2	-18.787E0
8.4399E2	-35.171E0
8.4438E2	-28.80E0
8.4477E2	-23.793E0
8.4516E2	-17.65E0
8.4555E2	-24.021E0
8.4595E2	-18.787E0
8.4634E2	-31.303E0
8.4673E2	-10.14E0
8.4712E2	-23.111E0
8.4751E2	-21.973E0
8.479E2	-21.29E0
8.4829E2	-36.991E0
8.4869E2	-19.47E0
8.4908E2	-37.674E0
8.4947E2	-34.943E0
8.4986E2	-18.105E0
8.5025E2	-36.536E0
8.5064E2	-15.829E0
8.5103E2	-25.386E0
8.5142E2	-10.823E0
8.5181E2	-1.2658E0
8.5221E2	-18.787E0
8.526E2	-17.877E0
8.5299E2	-26.752E0
8.5338E2	-26.296E0
8.5377E2	-29.482E0
8.5416E2	-5.5892E0
8.5455E2	-24.021E0
8.5494E2	-37.674E0
8.5533E2	-25.386E0
8.5572E2	-9.9127E0
8.5611E2	-19.925E0
8.565E2	-19.015E0
8.5689E2	-48.141E0
8.5728E2	-23.793E0
8.5767E2	-23.793E0
8.5806E2	-21.518E0
8.5845E2	-29.71E0
8.5884E2	-6.727E0
8.5923E2	-20.608E0
8.5962E2	-19.015E0
8.6001E2	-21.063E0
8.604E2	-30.62E0
8.6079E2	-16.739E0
8.6118E2	-45.183E0
8.6157E2	-35.399E0
8.6196E2	-25.386E0
8.6235E2	-25.841E0
8.6274E2	-38.357E0
8.6313E2	-17.877E0
8.6352E2	-40.177E0
8.639E2	-38.812E0
8.6429E2	-34.261E0
8.6468E2	-41.542E0
8.6507E2	-46.549E0
8.6546E2	-16.057E0
8.6585E2	-21.973E0
8.6624E2	-34.033E0
8.6663E2	-41.542E0
8.6702E2	-30.392E0
8.674E2	-5.8168E0
8.6779E2	-16.284E0
8.6818E2	-29.255E0
8.6857E2	-18.332E0
8.6896E2	-38.584E0
8.6935E2	-14.236E0
8.6973E2	-22.201E0
8.7012E2	-25.386E0
8.7051E2	-27.434E0
8.709E2	-35.626E0
8.7129E2	-18.332E0
8.7167E2	-27.207E0
8.7206E2	-49.052E0
8.7245E2	-45.638E0
8.7284E2	-36.536E0
8.7323E2	-30.62E0
8.7361E2	-45.866E0
8.740E2	-17.194E0
8.7439E2	-43.135E0
8.7478E2	-9.0025E0
8.7516E2	-27.434E0
8.7555E2	-29.255E0
8.7594E2	-27.434E0
8.7633E2	-42.453E0
8.7671E2	-18.56E0
8.771E2	-16.739E0
8.7749E2	-31.53E0
8.7787E2	-31.985E0
8.7826E2	-19.697E0
8.7865E2	-19.47E0
8.7904E2	-53.375E0
8.7942E2	-32.213E0
8.7981E2	-15.602E0
8.802E2	-29.482E0
8.8058E2	-17.65E0
8.8097E2	-32.44E0
8.8136E2	-33.351E0
8.8174E2	-35.171E0
8.8213E2	-29.027E0
8.8252E2	-11.733E0
8.829E2	-25.841E0
8.8329E2	-13.326E0
8.8367E2	-28.572E0
8.8406E2	-21.973E0
8.8445E2	-26.752E0
8.8483E2	-44.273E0
8.8522E2	-44.956E0
8.856E2	-42.68E0
8.8599E2	-41.087E0
8.8638E2	-11.506E0
8.8676E2	-24.249E0
8.8715E2	-5.5892E0
8.8753E2	-43.363E0
8.8792E2	-49.507E0
8.883E2	-18.332E0
8.8869E2	-17.194E0
8.8907E2	-20.835E0
8.8946E2	-24.021E0
8.8984E2	-31.758E0
8.9023E2	-40.405E0
8.9062E2	-31.303E0
8.910E2	-33.351E0
8.9139E2	-34.033E0
8.9177E2	-28.344E0
8.9216E2	-35.854E0
8.9254E2	-36.536E0
8.9292E2	-33.806E0
8.9331E2	-24.931E0
8.9369E2	-21.745E0
8.9408E2	-43.818E0
8.9446E2	-30.62E0
8.9485E2	-28.80E0
8.9523E2	-39.495E0
8.9562E2	-45.183E0
8.960E2	-32.668E0
8.9639E2	-37.674E0
8.9677E2	-25.386E0
8.9715E2	-35.854E0
8.9754E2	-31.303E0
8.9792E2	-46.321E0
8.9831E2	-23.793E0
8.9869E2	-50.189E0
8.9907E2	-26.979E0
8.9946E2	-34.488E0
8.9984E2	-14.691E0
9.0022E2	-27.434E0
9.0061E2	-42.68E0
9.0099E2	-40.86E0
9.0138E2	-25.386E0
9.0176E2	-29.482E0
9.0214E2	-21.745E0
9.0253E2	-32.895E0
9.0291E2	-41.77E0
9.0329E2	-25.159E0
9.0368E2	-30.165E0
9.0406E2	-26.752E0
9.0444E2	-16.967E0
9.0482E2	-27.889E0
9.0521E2	-44.501E0
9.0559E2	-35.626E0
9.0597E2	-22.428E0
9.0636E2	-25.159E0
9.0674E2	-30.848E0
9.0712E2	-40.632E0
9.075E2	-33.578E0
9.0789E2	-26.296E0
9.0827E2	-38.812E0
9.0865E2	-30.848E0
9.0903E2	-32.213E0
9.0941E2	-39.039E0
9.098E2	-29.937E0
9.1018E2	-21.745E0
9.1056E2	-14.464E0
9.1094E2	-23.793E0
9.1133E2	-12.188E0
9.1171E2	-35.399E0
9.1209E2	-23.793E0
9.1247E2	-11.961E0
9.1285E2	-27.434E0
9.1323E2	-15.374E0
9.1362E2	-33.351E0
9.140E2	-14.236E0
9.1438E2	-46.549E0
9.1476E2	-25.614E0
9.1514E2	-23.338E0
9.1552E2	-57.016E0
9.159E2	-34.033E0
9.1629E2	-42.225E0
9.1667E2	-24.931E0
9.1705E2	-25.614E0
9.1743E2	-37.219E0
9.1781E2	-34.488E0
9.1819E2	-26.979E0
9.1857E2	-31.53E0
9.1895E2	-40.632E0
9.1933E2	-35.171E0
9.1971E2	-44.273E0
9.2009E2	-28.572E0
9.2047E2	-15.602E0
9.2085E2	-9.4576E0
9.2123E2	-34.033E0
9.2162E2	-25.159E0
9.220E2	-12.643E0
9.2238E2	-15.374E0
9.2276E2	-22.201E0
9.2314E2	-4.9066E0
9.2352E2	-19.925E0
9.239E2	-22.201E0
9.2428E2	-20.835E0
9.2466E2	-22.656E0
9.2504E2	-32.895E0
9.2542E2	-36.309E0
9.2579E2	-52.465E0
9.2617E2	-34.261E0
9.2655E2	-35.171E0
9.2693E2	-33.351E0
9.2731E2	-39.722E0
9.2769E2	-39.039E0
9.2807E2	-41.77E0
9.2845E2	-30.392E0
9.2883E2	-46.321E0
9.2921E2	-27.662E0
9.2959E2	-9.2301E0
9.2997E2	-46.549E0
9.3035E2	-35.171E0
9.3072E2	-29.71E0
9.311E2	-16.512E0
9.3148E2	-33.806E0
9.3186E2	-48.141E0
9.3224E2	-32.44E0
9.3262E2	-28.80E0
9.330E2	-32.44E0
9.3338E2	-41.315E0
9.3375E2	-28.117E0
9.3413E2	-47.914E0
9.3451E2	-38.584E0
9.3489E2	-33.351E0
9.3527E2	-31.985E0
9.3564E2	-42.68E0
9.3602E2	-46.094E0
9.364E2	-46.094E0
9.3678E2	-21.518E0
9.3716E2	-31.075E0
9.3753E2	-15.374E0
9.3791E2	-36.309E0
9.3829E2	-40.86E0
9.3867E2	-26.752E0
9.3904E2	-39.495E0
9.3942E2	-38.584E0
9.398E2	-26.979E0
9.4018E2	-13.781E0
9.4055E2	-46.094E0
9.4093E2	-54.058E0
9.4131E2	-23.338E0
9.4169E2	-32.44E0
9.4206E2	-34.261E0
9.4244E2	-29.255E0
9.4282E2	-46.549E0
9.4319E2	-37.902E0
9.4357E2	-30.392E0
9.4395E2	-22.656E0
9.4432E2	-38.357E0
9.447E2	-27.434E0
9.4508E2	-27.207E0
9.4545E2	-50.645E0
9.4583E2	-20.608E0
9.4621E2	-11.961E0
9.4658E2	-34.716E0
9.4696E2	-36.081E0
9.4733E2	-28.344E0
9.4771E2	-28.80E0
9.4809E2	-21.745E0
9.4846E2	-27.662E0
9.4884E2	-30.62E0
9.4921E2	-41.77E0
9.4959E2	-20.608E0
9.4997E2	-45.866E0
9.5034E2	-36.536E0
9.5072E2	-19.925E0
9.5109E2	-9.0025E0
9.5147E2	-21.973E0
9.5184E2	-38.584E0
9.5222E2	-28.117E0
9.5259E2	-19.47E0
9.5297E2	-28.117E0
9.5335E2	-54.968E0
9.5372E2	-20.153E0
9.541E2	-12.416E0
9.5447E2	-15.602E0
9.5485E2	-55.878E0
9.5522E2	-47.004E0
9.556E2	-34.033E0
9.5597E2	-14.009E0
9.5634E2	-39.722E0
9.5672E2	-24.021E0
9.5709E2	-38.584E0
9.5747E2	-18.105E0
9.5784E2	-27.662E0
9.5822E2	-13.781E0
9.5859E2	-32.668E0
9.5897E2	-39.95E0
9.5934E2	-36.764E0
9.5971E2	-24.021E0
9.6009E2	-41.542E0
9.6046E2	-23.338E0
9.6084E2	-30.62E0
9.6121E2	-36.081E0
9.6158E2	-26.524E0
9.6196E2	-41.087E0
9.6233E2	-18.332E0
9.6271E2	-52.01E0
9.6308E2	-19.015E0
9.6345E2	-40.405E0
9.6383E2	-35.399E0
9.642E2	-33.351E0
9.6457E2	-28.572E0
9.6495E2	-38.584E0
9.6532E2	-34.261E0
9.6569E2	-54.058E0
9.6607E2	-59.747E0
9.6644E2	-27.889E0
9.6681E2	-25.159E0
9.6718E2	-24.021E0
9.6756E2	-35.171E0
9.6793E2	-46.776E0
9.683E2	-35.854E0
9.6867E2	-19.925E0
9.6905E2	-44.501E0
9.6942E2	-44.501E0
9.6979E2	-47.231E0
9.7016E2	-32.44E0
9.7054E2	-33.578E0
9.7091E2	-35.626E0
9.7128E2	-33.578E0
9.7165E2	-41.087E0
9.7203E2	-43.363E0
9.724E2	-57.699E0
9.7277E2	-27.434E0
9.7314E2	-21.745E0
9.7351E2	-30.165E0
9.7389E2	-27.662E0
9.7426E2	-41.087E0
9.7463E2	-34.033E0
9.750E2	-22.883E0
9.7537E2	-49.507E0
9.7574E2	-33.578E0
9.7611E2	-26.069E0
9.7649E2	-34.033E0
9.7686E2	-22.656E0
9.7723E2	-10.14E0
9.776E2	-30.165E0
9.7797E2	-38.812E0
9.7834E2	5.5669E2
9.7871E2	26.723E0
9.7908E2	-45.638E0
9.7945E2	-28.117E0
9.7982E2	-24.249E0
9.802E2	-44.501E0
9.8057E2	-32.213E0
9.8094E2	-26.296E0
9.8131E2	-22.656E0
9.8168E2	-26.752E0
9.8205E2	-10.14E0
9.8242E2	-2.176E0
9.8279E2	-37.447E0
9.8316E2	-32.213E0
9.8353E2	-22.656E0
9.839E2	-31.075E0
9.8427E2	-39.267E0
9.8464E2	-28.80E0
9.8501E2	-36.081E0
9.8538E2	-41.315E0
9.8575E2	-9.6852E0
9.8612E2	-29.027E0
9.8649E2	-30.62E0
9.8686E2	-28.572E0
9.8723E2	-14.464E0
9.876E2	-29.482E0
9.8796E2	-20.38E0
9.8833E2	-28.80E0
9.887E2	-25.159E0
9.8907E2	-34.488E0
9.8944E2	-21.518E0
9.8981E2	-31.075E0
9.9018E2	-29.255E0
9.9055E2	-29.255E0
9.9092E2	-16.057E0
9.9129E2	-6.0444E0
9.9165E2	-20.608E0
9.9202E2	-16.284E0
9.9239E2	-50.189E0
9.9276E2	-38.357E0
9.9313E2	-23.111E0
9.935E2	-41.998E0
9.9387E2	-47.686E0
9.9423E2	-51.327E0
9.946E2	-38.357E0
9.9497E2	-5.5892E0
9.9534E2	-35.626E0
9.9571E2	-28.572E0
9.9607E2	-26.979E0
9.9644E2	-17.422E0
9.9681E2	-47.686E0
9.9718E2	-43.818E0
9.9755E2	-31.075E0
9.9791E2	-41.998E0
9.9828E2	-43.135E0
9.9865E2	-20.835E0
9.9902E2	-36.764E0
9.9938E2	-37.674E0
9.9975E2	-7.4097E0
10.001E2	-26.524E0
10.005E2	-42.908E0
10.009E2	-25.614E0
10.012E2	-43.818E0
10.016E2	-33.123E0
10.02E2	-37.447E0
10.023E2	-42.453E0
10.027E2	-26.524E0
10.031E2	-42.68E0
10.034E2	-34.033E0
10.038E2	-17.877E0
10.042E2	-6.2719E0
10.045E2	-32.668E0
10.049E2	-39.495E0
10.053E2	-43.363E0
10.056E2	-48.141E0
10.06E2	-42.68E0
10.064E2	-20.835E0
10.067E2	-22.428E0
10.071E2	-30.392E0
10.074E2	-27.662E0
10.078E2	-38.584E0
10.082E2	-23.566E0
10.085E2	-19.47E0
10.089E2	-45.183E0
10.093E2	-46.094E0
10.096E2	-31.53E0
10.10E2	-51.555E0
10.104E2	-38.812E0
10.107E2	-59.747E0
10.111E2	-29.937E0
10.115E2	-41.087E0
10.118E2	-26.296E0
10.122E2	-21.063E0
10.126E2	-29.255E0
10.129E2	-34.261E0
10.133E2	-15.829E0
10.137E2	-23.111E0
10.14E2	-43.59E0
10.144E2	-33.351E0
10.148E2	-48.141E0
10.151E2	-17.422E0
10.155E2	-29.482E0
10.158E2	-25.386E0
10.162E2	-23.793E0
10.166E2	-33.123E0
10.169E2	-39.722E0
10.173E2	-31.53E0
10.177E2	-40.86E0
10.18E2	-59.747E0
10.184E2	-12.416E0
10.188E2	-40.177E0
10.191E2	-29.255E0
10.195E2	-25.159E0
10.199E2	-21.063E0
10.202E2	-20.608E0
10.206E2	-27.207E0
10.209E2	-27.207E0
10.213E2	-42.908E0
10.217E2	-26.524E0
10.22E2	-40.177E0
10.224E2	-49.052E0
10.228E2	-29.937E0
10.231E2	-11.506E0
10.235E2	-24.476E0
10.238E2	-15.146E0
10.242E2	-39.267E0
10.246E2	-21.518E0
10.249E2	-29.255E0
10.253E2	-28.117E0
10.257E2	-37.219E0
10.26E2	-34.943E0
10.264E2	-17.65E0
10.267E2	-34.033E0
10.271E2	-21.063E0
10.275E2	-35.626E0
10.278E2	-26.069E0
10.282E2	-29.027E0
10.286E2	-33.578E0
10.289E2	-43.135E0
10.293E2	-35.854E0
10.296E2	-47.231E0
10.30E2	-45.866E0
10.304E2	-54.513E0
10.307E2	-56.561E0
10.311E2	-5.8168E0
10.315E2	-31.985E0
10.318E2	-32.213E0
10.322E2	-45.638E0
10.325E2	-36.081E0
10.329E2	-32.44E0
10.333E2	-42.453E0
10.336E2	-59.974E0
10.34E2	-33.578E0
10.343E2	-11.506E0
10.347E2	-29.255E0
10.351E2	-26.296E0
10.354E2	-29.027E0
10.358E2	-47.686E0
10.362E2	-38.129E0
10.365E2	-27.207E0
10.369E2	-38.584E0
10.372E2	-35.854E0
10.376E2	-40.632E0
10.38E2	-31.075E0
