Data from JAZA26501_14-02-41-653.txt Node
Date: Sun Sep 29 14:02:41 ADT 2013
User: oceanview
Spectrometer:  JAZA2650
Trigger mode: 0
Integration Time (sec): 1.000000E-1
Scans to average: 10
Electric dark correction enabled: true
Nonlinearity correction enabled: false
Boxcar width: 0
XAxis mode: Wavelengths
Number of Pixels in Spectrum: 2048
>>>>>Begin Spectral Data<<<<<
1.897E2	-27.434E0
1.9015E2	-27.434E0
1.9061E2	-27.434E0
1.9106E2	-14.236E0
1.9151E2	-10.368E0
1.9197E2	-58.31E-2
1.9242E2	5.3333E0
1.9288E2	18.304E0
1.9333E2	1.0098E0
1.9378E2	6.9261E0
1.9424E2	7.1537E0
1.9469E2	27.178E0
1.9515E2	-2.176E0
1.956E2	-7.6372E0
1.9605E2	-2.176E0
1.9651E2	-4.679E0
1.9696E2	78.221E-2
1.9742E2	2.6026E0
1.9787E2	-7.8648E0
1.9832E2	-29.937E0
1.9878E2	-20.153E0
1.9923E2	-34.488E0
1.9968E2	-27.889E0
2.0014E2	-24.704E0
2.0059E2	-31.758E0
2.0104E2	-8.3199E0
2.015E2	-11.961E0
2.0195E2	-26.752E0
2.0241E2	-25.614E0
2.0286E2	-26.069E0
2.0331E2	-16.284E0
2.0377E2	-25.386E0
2.0422E2	-5.8168E0
2.0467E2	-19.242E0
2.0513E2	-19.47E0
2.0558E2	-29.255E0
2.0603E2	-24.476E0
2.0649E2	-29.71E0
2.0694E2	-31.758E0
2.0739E2	-38.357E0
2.0785E2	-16.057E0
2.083E2	-45.638E0
2.0875E2	-19.925E0
2.0921E2	-19.47E0
2.0966E2	-22.883E0
2.1011E2	-40.405E0
2.1056E2	-32.895E0
2.1102E2	-40.632E0
2.1147E2	-34.943E0
2.1192E2	-29.482E0
2.1238E2	-36.309E0
2.1283E2	-31.758E0
2.1328E2	-16.284E0
2.1374E2	-31.985E0
2.1419E2	-22.656E0
2.1464E2	-34.488E0
2.1509E2	-28.80E0
2.1555E2	-31.53E0
2.160E2	-12.188E0
2.1645E2	-26.296E0
2.169E2	-24.249E0
2.1736E2	-36.991E0
2.1781E2	-23.111E0
2.1826E2	-10.823E0
2.1872E2	-31.758E0
2.1917E2	-27.662E0
2.1962E2	-28.117E0
2.2007E2	-29.027E0
2.2053E2	-16.057E0
2.2098E2	-31.758E0
2.2143E2	-22.883E0
2.2188E2	-31.758E0
2.2234E2	-34.261E0
2.2279E2	-36.309E0
2.2324E2	-37.674E0
2.2369E2	-34.261E0
2.2414E2	-18.787E0
2.246E2	-22.883E0
2.2505E2	-29.027E0
2.255E2	-41.087E0
2.2595E2	-26.069E0
2.2641E2	-20.835E0
2.2686E2	-29.71E0
2.2731E2	-18.332E0
2.2776E2	-30.62E0
2.2821E2	-26.752E0
2.2867E2	-30.62E0
2.2912E2	-9.9127E0
2.2957E2	-18.105E0
2.3002E2	-23.793E0
2.3047E2	-19.697E0
2.3093E2	-21.063E0
2.3138E2	-16.967E0
2.3183E2	-16.512E0
2.3228E2	-18.105E0
2.3273E2	-16.284E0
2.3318E2	-12.416E0
2.3364E2	-35.626E0
2.3409E2	-24.704E0
2.3454E2	-37.902E0
2.3499E2	-23.111E0
2.3544E2	-25.614E0
2.3589E2	-29.027E0
2.3635E2	-35.171E0
2.368E2	-37.219E0
2.3725E2	-17.194E0
2.377E2	-17.422E0
2.3815E2	-34.716E0
2.386E2	-43.363E0
2.3905E2	-27.207E0
2.3951E2	-11.733E0
2.3996E2	-26.069E0
2.4041E2	-34.716E0
2.4086E2	-31.758E0
2.4131E2	-31.985E0
2.4176E2	-28.344E0
2.4221E2	-11.506E0
2.4266E2	-36.536E0
2.4312E2	-24.931E0
2.4357E2	-40.405E0
2.4402E2	-5.8168E0
2.4447E2	-25.386E0
2.4492E2	-24.021E0
2.4537E2	-23.338E0
2.4582E2	-13.098E0
2.4627E2	-36.764E0
2.4672E2	-20.608E0
2.4717E2	-36.081E0
2.4763E2	-19.697E0
2.4808E2	-20.608E0
2.4853E2	-33.123E0
2.4898E2	-31.075E0
2.4943E2	-6.9546E0
2.4988E2	-7.6372E0
2.5033E2	-20.608E0
2.5078E2	-7.4097E0
2.5123E2	-38.129E0
2.5168E2	-28.117E0
2.5213E2	-26.069E0
2.5258E2	-20.38E0
2.5303E2	-2.4035E0
2.5348E2	-36.764E0
2.5393E2	-19.697E0
2.5438E2	-15.146E0
2.5484E2	-24.249E0
2.5529E2	-9.4576E0
2.5574E2	-18.332E0
2.5619E2	-17.422E0
2.5664E2	-29.937E0
2.5709E2	-34.943E0
2.5754E2	-51.782E0
2.5799E2	-28.572E0
2.5844E2	-34.488E0
2.5889E2	-39.267E0
2.5934E2	-52.01E0
2.5979E2	-51.555E0
2.6024E2	-33.578E0
2.6069E2	-22.656E0
2.6114E2	-16.512E0
2.6159E2	-14.919E0
2.6204E2	-36.991E0
2.6249E2	-31.303E0
2.6294E2	-32.213E0
2.6339E2	-37.674E0
2.6384E2	-23.566E0
2.6429E2	-40.177E0
2.6474E2	-19.925E0
2.6519E2	-5.3617E0
2.6564E2	-31.53E0
2.6609E2	-38.357E0
2.6654E2	-9.0025E0
2.6699E2	-21.063E0
2.6744E2	-27.207E0
2.6789E2	-52.92E0
2.6833E2	-18.332E0
2.6878E2	-26.752E0
2.6923E2	-29.027E0
2.6968E2	-24.249E0
2.7013E2	-21.518E0
2.7058E2	-41.998E0
2.7103E2	-22.201E0
2.7148E2	-21.29E0
2.7193E2	-12.871E0
2.7238E2	-11.05E0
2.7283E2	-29.027E0
2.7328E2	-21.29E0
2.7373E2	-27.889E0
2.7418E2	-32.895E0
2.7463E2	-19.925E0
2.7507E2	-21.745E0
2.7552E2	-29.027E0
2.7597E2	-15.374E0
2.7642E2	-38.357E0
2.7687E2	-15.146E0
2.7732E2	-31.303E0
2.7777E2	-33.351E0
2.7822E2	-44.273E0
2.7867E2	-22.656E0
2.7912E2	-19.697E0
2.7956E2	-19.242E0
2.8001E2	-23.111E0
2.8046E2	-16.739E0
2.8091E2	-15.146E0
2.8136E2	-47.459E0
2.8181E2	-35.171E0
2.8226E2	-19.697E0
2.8271E2	-20.835E0
2.8315E2	-45.638E0
2.836E2	-51.555E0
2.8405E2	-3.3137E0
2.845E2	-19.015E0
2.8495E2	-25.159E0
2.854E2	-34.261E0
2.8585E2	-38.584E0
2.8629E2	-37.902E0
2.8674E2	-15.602E0
2.8719E2	-20.38E0
2.8764E2	-31.758E0
2.8809E2	-10.14E0
2.8854E2	-26.524E0
2.8898E2	-25.614E0
2.8943E2	-29.255E0
2.8988E2	-9.4576E0
2.9033E2	-19.242E0
2.9078E2	-9.4576E0
2.9122E2	-19.242E0
2.9167E2	-42.908E0
2.9212E2	-15.602E0
2.9257E2	-22.656E0
2.9302E2	-29.027E0
2.9346E2	-41.315E0
2.9391E2	-45.638E0
2.9436E2	-36.991E0
2.9481E2	-40.405E0
2.9526E2	-31.985E0
2.957E2	-29.255E0
2.9615E2	-32.213E0
2.966E2	-44.728E0
2.9705E2	-23.566E0
2.9749E2	-30.62E0
2.9794E2	-26.752E0
2.9839E2	-21.29E0
2.9884E2	-32.213E0
2.9928E2	-45.866E0
2.9973E2	-46.094E0
3.0018E2	-28.80E0
3.0063E2	-18.56E0
3.0107E2	-24.931E0
3.0152E2	-36.764E0
3.0197E2	-35.399E0
3.0242E2	-44.501E0
3.0286E2	-48.597E0
3.0331E2	-19.925E0
3.0376E2	9.9554E-2
3.0421E2	-7.6372E0
3.0465E2	-10.823E0
3.051E2	-43.363E0
3.0555E2	-26.296E0
3.0599E2	-36.991E0
3.0644E2	-25.386E0
3.0689E2	-16.739E0
3.0734E2	-29.482E0
3.0778E2	-10.14E0
3.0823E2	-18.105E0
3.0868E2	-26.752E0
3.0912E2	-36.991E0
3.0957E2	-39.495E0
3.1002E2	-46.094E0
3.1046E2	-33.351E0
3.1091E2	-13.098E0
3.1136E2	-15.374E0
3.118E2	-6.4995E0
3.1225E2	-22.428E0
3.127E2	-8.3199E0
3.1314E2	-14.919E0
3.1359E2	-34.488E0
3.1404E2	-15.146E0
3.1448E2	-36.309E0
3.1493E2	-16.512E0
3.1538E2	-20.153E0
3.1582E2	18.986E0
3.1627E2	-28.117E0
3.1672E2	-35.626E0
3.1716E2	-10.368E0
3.1761E2	-30.392E0
3.1805E2	-20.608E0
3.185E2	-31.758E0
3.1895E2	-14.236E0
3.1939E2	-29.71E0
3.1984E2	-16.057E0
3.2029E2	-25.614E0
3.2073E2	-42.225E0
3.2118E2	-24.021E0
3.2162E2	-42.68E0
3.2207E2	-36.991E0
3.2252E2	-47.004E0
3.2296E2	-36.309E0
3.2341E2	-18.105E0
3.2385E2	-31.075E0
3.243E2	-20.835E0
3.2474E2	-38.812E0
3.2519E2	-21.063E0
3.2564E2	-37.902E0
3.2608E2	-26.524E0
3.2653E2	-28.117E0
3.2697E2	-19.925E0
3.2742E2	-18.332E0
3.2786E2	-48.141E0
3.2831E2	-17.194E0
3.2876E2	-21.063E0
3.292E2	-14.236E0
3.2965E2	-18.332E0
3.3009E2	-12.871E0
3.3054E2	-17.65E0
3.3098E2	-37.674E0
3.3143E2	-25.159E0
3.3187E2	-24.476E0
3.3232E2	-38.584E0
3.3276E2	-29.71E0
3.3321E2	-44.046E0
3.3365E2	-47.686E0
3.341E2	-45.638E0
3.3454E2	-11.961E0
3.3499E2	-34.033E0
3.3543E2	-32.668E0
3.3588E2	-27.207E0
3.3632E2	-22.656E0
3.3677E2	-25.841E0
3.3721E2	-36.536E0
3.3766E2	-36.309E0
3.381E2	-51.327E0
3.3855E2	-23.566E0
3.3899E2	-26.752E0
3.3944E2	-15.829E0
3.3988E2	-36.536E0
3.4033E2	-32.895E0
3.4077E2	-10.595E0
3.4122E2	-27.207E0
3.4166E2	-20.608E0
3.4211E2	-18.787E0
3.4255E2	-34.716E0
3.430E2	-26.069E0
3.4344E2	-28.572E0
3.4388E2	-54.968E0
3.4433E2	-25.614E0
3.4477E2	-28.117E0
3.4522E2	-31.758E0
3.4566E2	-41.77E0
3.4611E2	-38.129E0
3.4655E2	-25.386E0
3.470E2	-33.351E0
3.4744E2	-31.758E0
3.4788E2	-30.392E0
3.4833E2	-33.123E0
3.4877E2	-18.105E0
3.4922E2	-40.86E0
3.4966E2	-32.213E0
3.501E2	-25.614E0
3.5055E2	-20.608E0
3.5099E2	-20.608E0
3.5144E2	-47.914E0
3.5188E2	-24.931E0
3.5232E2	-14.236E0
3.5277E2	-27.662E0
3.5321E2	-46.094E0
3.5365E2	-19.697E0
3.541E2	-40.632E0
3.5454E2	-15.829E0
3.5499E2	-31.53E0
3.5543E2	-21.518E0
3.5587E2	-24.704E0
3.5632E2	-16.284E0
3.5676E2	-44.728E0
3.572E2	-40.177E0
3.5765E2	-34.033E0
3.5809E2	-27.662E0
3.5853E2	-49.052E0
3.5898E2	-20.153E0
3.5942E2	-34.033E0
3.5986E2	-55.423E0
3.6031E2	-26.752E0
3.6075E2	-41.998E0
3.6119E2	-41.087E0
3.6164E2	-23.566E0
3.6208E2	-29.937E0
3.6252E2	-46.094E0
3.6297E2	-26.524E0
3.6341E2	-22.656E0
3.6385E2	-27.207E0
3.6429E2	-26.752E0
3.6474E2	-40.177E0
3.6518E2	-39.95E0
3.6562E2	-38.129E0
3.6607E2	-32.895E0
3.6651E2	-46.094E0
3.6695E2	-28.344E0
3.6739E2	-29.71E0
3.6784E2	-46.321E0
3.6828E2	-21.518E0
3.6872E2	-15.146E0
3.6916E2	-18.787E0
3.6961E2	-21.973E0
3.7005E2	-30.848E0
3.7049E2	-23.111E0
3.7093E2	-23.338E0
3.7138E2	-22.428E0
3.7182E2	-16.512E0
3.7226E2	-28.344E0
3.727E2	-15.146E0
3.7315E2	-14.919E0
3.7359E2	-11.961E0
3.7403E2	-36.991E0
3.7447E2	-39.95E0
3.7492E2	-18.332E0
3.7536E2	-26.752E0
3.758E2	-27.889E0
3.7624E2	-22.656E0
3.7668E2	-29.027E0
3.7713E2	-15.374E0
3.7757E2	-49.052E0
3.7801E2	-42.453E0
3.7845E2	-21.29E0
3.7889E2	-34.488E0
3.7934E2	-34.716E0
3.7978E2	-18.787E0
3.8022E2	-52.01E0
3.8066E2	-32.895E0
3.811E2	-33.806E0
3.8154E2	-36.764E0
3.8199E2	-29.937E0
3.8243E2	-39.495E0
3.8287E2	-21.063E0
3.8331E2	-27.434E0
3.8375E2	-33.351E0
3.8419E2	-32.668E0
3.8463E2	-20.38E0
3.8508E2	-38.129E0
3.8552E2	-19.925E0
3.8596E2	-36.764E0
3.864E2	-21.745E0
3.8684E2	-24.704E0
3.8728E2	-27.662E0
3.8772E2	-45.866E0
3.8816E2	-12.643E0
3.8861E2	-37.447E0
3.8905E2	-17.422E0
3.8949E2	-27.662E0
3.8993E2	-26.979E0
3.9037E2	-32.213E0
3.9081E2	-31.53E0
3.9125E2	-12.871E0
3.9169E2	-56.561E0
3.9213E2	-44.046E0
3.9257E2	-27.889E0
3.9301E2	-38.584E0
3.9346E2	-40.177E0
3.939E2	-24.704E0
3.9434E2	-23.566E0
3.9478E2	-29.71E0
3.9522E2	-16.512E0
3.9566E2	-30.62E0
3.961E2	-13.554E0
3.9654E2	-27.889E0
3.9698E2	19.214E0
3.9742E2	-44.273E0
3.9786E2	-20.153E0
3.983E2	-52.01E0
3.9874E2	-37.674E0
3.9918E2	-16.967E0
3.9962E2	-40.405E0
4.0006E2	-23.338E0
4.005E2	-26.296E0
4.0094E2	-31.985E0
4.0138E2	-19.015E0
4.0182E2	-50.417E0
4.0226E2	-28.117E0
4.027E2	-28.80E0
4.0314E2	-44.501E0
4.0358E2	-36.764E0
4.0402E2	-24.021E0
4.0446E2	-34.033E0
4.049E2	-35.854E0
4.0534E2	-21.518E0
4.0578E2	-24.931E0
4.0622E2	-29.255E0
4.0666E2	-24.704E0
4.071E2	-9.2301E0
4.0754E2	-25.841E0
4.0798E2	-18.105E0
4.0842E2	-30.62E0
4.0886E2	-33.578E0
4.093E2	-20.835E0
4.0974E2	-44.046E0
4.1018E2	-17.877E0
4.1062E2	-20.608E0
4.1106E2	-10.823E0
4.115E2	-32.668E0
4.1194E2	-37.674E0
4.1237E2	-25.386E0
4.1281E2	-34.488E0
4.1325E2	-31.303E0
4.1369E2	-20.38E0
4.1413E2	-13.554E0
4.1457E2	-10.14E0
4.1501E2	-10.368E0
4.1545E2	-21.29E0
4.1589E2	-9.2301E0
4.1633E2	-27.662E0
4.1676E2	-13.781E0
4.172E2	-13.326E0
4.1764E2	78.221E-2
4.1808E2	-33.351E0
4.1852E2	-13.326E0
4.1896E2	-10.368E0
4.194E2	-3.9964E0
4.1984E2	-10.368E0
4.2027E2	4.1955E0
4.2071E2	-8.3199E0
4.2115E2	-5.8168E0
4.2159E2	1.2373E0
4.2203E2	-13.781E0
4.2247E2	-21.063E0
4.2291E2	-13.554E0
4.2334E2	8.9741E0
4.2378E2	-19.242E0
4.2422E2	4.423E0
4.2466E2	14.435E0
4.251E2	8.7465E0
4.2554E2	78.221E-2
4.2597E2	-3.7688E0
4.2641E2	11.932E0
4.2685E2	11.932E0
4.2729E2	4.6506E0
4.2773E2	8.7465E0
4.2816E2	18.759E0
4.286E2	36.28E0
4.2904E2	11.022E0
4.2948E2	26.496E0
4.2991E2	27.861E0
4.3035E2	26.496E0
4.3079E2	39.466E0
4.3123E2	34.005E0
4.3167E2	41.286E0
4.321E2	35.825E0
4.3254E2	44.245E0
4.3298E2	49.478E0
4.3342E2	41.742E0
4.3385E2	73.599E0
4.3429E2	72.006E0
4.3473E2	79.06E0
4.3517E2	61.766E0
4.356E2	84.294E0
4.3604E2	89.983E0
4.3648E2	93.851E0
4.3692E2	1.0773E2
4.3735E2	1.3504E2
4.3779E2	1.0773E2
4.3823E2	1.1046E2
4.3866E2	1.2321E2
4.391E2	1.2047E2
4.3954E2	1.2138E2
4.3997E2	1.4414E2
4.4041E2	1.4505E2
4.4085E2	1.2685E2
4.4129E2	1.3845E2
4.4172E2	1.364E2
4.4216E2	1.5097E2
4.426E2	1.6439E2
4.4303E2	1.4505E2
4.4347E2	1.7486E2
4.4391E2	2.0239E2
4.4434E2	1.7782E2
4.4478E2	1.7395E2
4.4522E2	1.9443E2
4.4565E2	1.9898E2
4.4609E2	1.9784E2
4.4653E2	1.9488E2
4.4696E2	2.0444E2
4.474E2	2.1445E2
4.4783E2	1.6485E2
4.4827E2	1.7805E2
4.4871E2	2.1195E2
4.4914E2	2.1013E2
4.4958E2	1.9443E2
4.5002E2	1.8897E2
4.5045E2	1.719E2
4.5089E2	1.917E2
4.5132E2	2.4495E2
4.5176E2	1.9352E2
4.522E2	1.892E2
4.5263E2	1.8487E2
4.5307E2	2.0285E2
4.535E2	1.9579E2
4.5394E2	1.8442E2
4.5437E2	1.8624E2
4.5481E2	1.8988E2
4.5525E2	1.6803E2
4.5568E2	1.6143E2
4.5612E2	1.6462E2
4.5655E2	1.5074E2
4.5699E2	1.6121E2
4.5742E2	1.3276E2
4.5786E2	1.4551E2
4.5829E2	1.380E2
4.5873E2	1.3231E2
4.5917E2	1.2912E2
4.596E2	1.4414E2
4.6004E2	1.2434E2
4.6047E2	1.314E2
4.6091E2	1.2503E2
4.6134E2	1.4095E2
4.6178E2	1.1183E2
4.6221E2	1.1524E2
4.6265E2	1.248E2
4.6308E2	1.1388E2
4.6352E2	1.6439E2
4.6395E2	1.1501E2
4.6439E2	1.223E2
4.6482E2	1.2457E2
4.6526E2	1.2821E2
4.6569E2	1.2093E2
4.6613E2	1.2935E2
4.6656E2	1.4095E2
4.670E2	1.182E2
4.6743E2	1.1865E2
4.6787E2	1.2161E2
4.683E2	1.3231E2
4.6873E2	1.1843E2
4.6917E2	1.2867E2
4.696E2	1.207E2
4.7004E2	94.989E0
4.7047E2	1.0796E2
4.7091E2	78.833E0
4.7134E2	98.857E0
4.7177E2	85.887E0
4.7221E2	98.402E0
4.7264E2	99.54E0
4.7308E2	97.947E0
4.7351E2	88.617E0
4.7395E2	1.0432E2
4.7438E2	1.1683E2
4.7481E2	98.63E0
4.7525E2	1.1501E2
4.7568E2	91.575E0
4.7612E2	1.1456E2
4.7655E2	87.935E0
4.7698E2	1.0068E2
4.7742E2	1.2298E2
4.7785E2	1.2548E2
4.7828E2	1.3071E2
4.7872E2	1.0409E2
4.7915E2	1.1114E2
4.7959E2	1.2571E2
4.8002E2	1.1001E2
4.8045E2	1.1388E2
4.8089E2	1.1023E2
4.8132E2	95.899E0
4.8175E2	1.091E2
4.8219E2	1.0568E2
4.8262E2	1.1365E2
4.8305E2	1.0477E2
4.8349E2	1.1456E2
4.8392E2	1.3595E2
4.8435E2	1.2912E2
4.8479E2	95.671E0
4.8522E2	1.2753E2
4.8565E2	1.4255E2
4.8608E2	1.2389E2
4.8652E2	1.3936E2
4.8695E2	1.4209E2
4.8738E2	1.6371E2
4.8782E2	1.5552E2
4.8825E2	1.4824E2
4.8868E2	1.3481E2
4.8911E2	1.5233E2
4.8955E2	1.5643E2
4.8998E2	1.4778E2
4.9041E2	1.967E2
4.9084E2	1.810E2
4.9128E2	1.6553E2
4.9171E2	1.5552E2
4.9214E2	1.7827E2
4.9257E2	1.7486E2
4.9301E2	1.6121E2
4.9344E2	1.851E2
4.9387E2	1.8191E2
4.943E2	1.9784E2
4.9474E2	1.9898E2
4.9517E2	1.6803E2
4.956E2	1.8988E2
4.9603E2	1.8533E2
4.9647E2	1.6963E2
4.969E2	1.8646E2
4.9733E2	2.1263E2
4.9776E2	1.7213E2
4.9819E2	1.8783E2
4.9862E2	2.1013E2
4.9906E2	2.099E2
4.9949E2	1.9648E2
4.9992E2	2.1309E2
5.0035E2	2.0649E2
5.0078E2	1.8055E2
5.0122E2	2.2265E2
5.0165E2	2.1127E2
5.0208E2	2.1195E2
5.0251E2	2.0854E2
5.0294E2	2.3471E2
5.0337E2	2.2333E2
5.038E2	2.297E2
5.0424E2	2.1423E2
5.0467E2	2.2515E2
5.051E2	2.2469E2
5.0553E2	2.4153E2
5.0596E2	2.3903E2
5.0639E2	2.206E2
5.0682E2	2.1491E2
5.0725E2	2.3562E2
5.0769E2	2.4039E2
5.0812E2	2.3015E2
5.0855E2	2.652E2
5.0898E2	2.0876E2
5.0941E2	2.256E2
5.0984E2	2.2674E2
5.1027E2	2.3084E2
5.107E2	2.0399E2
5.1113E2	2.3243E2
5.1156E2	2.338E2
5.1199E2	2.1195E2
5.1242E2	2.3539E2
5.1285E2	2.2515E2
5.1329E2	2.1491E2
5.1372E2	2.4722E2
5.1415E2	2.4904E2
5.1458E2	2.4313E2
5.1501E2	2.3516E2
5.1544E2	2.3289E2
5.1587E2	2.5701E2
5.163E2	2.4631E2
5.1673E2	2.4039E2
5.1716E2	2.3721E2
5.1759E2	2.3493E2
5.1802E2	2.2879E2
5.1845E2	2.4062E2
5.1888E2	2.2515E2
5.1931E2	2.4677E2
5.1974E2	2.3744E2
5.2017E2	2.3539E2
5.206E2	2.5337E2
5.2103E2	2.3698E2
5.2146E2	2.388E2
5.2189E2	2.3402E2
5.2232E2	2.2469E2
5.2275E2	2.4176E2
5.2318E2	2.3698E2
5.2361E2	2.1605E2
5.2404E2	2.4062E2
5.2447E2	2.3448E2
5.2489E2	2.5314E2
5.2532E2	2.5837E2
5.2575E2	2.2128E2
5.2618E2	2.3971E2
5.2661E2	2.4199E2
5.2704E2	2.454E2
5.2747E2	2.3948E2
5.279E2	2.5132E2
5.2833E2	2.6292E2
5.2876E2	2.3266E2
5.2919E2	2.4859E2
5.2962E2	2.5541E2
5.3004E2	2.5883E2
5.3047E2	2.5928E2
5.309E2	2.6019E2
5.3133E2	2.4108E2
5.3176E2	2.5428E2
5.3219E2	2.7202E2
5.3262E2	2.5996E2
5.3305E2	2.9706E2
5.3348E2	2.6201E2
5.339E2	2.6497E2
5.3433E2	2.561E2
5.3476E2	2.5587E2
5.3519E2	2.4472E2
5.3562E2	2.5473E2
5.3605E2	2.6907E2
5.3647E2	2.7043E2
5.369E2	2.6292E2
5.3733E2	2.6452E2
5.3776E2	2.6588E2
5.3819E2	2.5769E2
5.3862E2	2.8636E2
5.3904E2	2.8272E2
5.3947E2	2.5996E2
5.399E2	2.5405E2
5.4033E2	2.6497E2
5.4076E2	2.7475E2
5.4118E2	2.6042E2
5.4161E2	2.7931E2
5.4204E2	2.7726E2
5.4247E2	2.586E2
5.4289E2	2.7999E2
5.4332E2	2.9728E2
5.4375E2	2.5405E2
5.4418E2	2.6269E2
5.4461E2	2.7658E2
5.4503E2	3.0161E2
5.4546E2	2.6907E2
5.4589E2	2.8204E2
5.4632E2	2.859E2
5.4674E2	2.7453E2
5.4717E2	2.7043E2
5.476E2	2.9273E2
5.4802E2	3.0616E2
5.4845E2	2.8317E2
5.4888E2	2.8886E2
5.4931E2	2.9546E2
5.4973E2	3.1503E2
5.5016E2	2.9159E2
5.5059E2	3.0047E2
5.5101E2	2.8317E2
5.5144E2	2.9432E2
5.5187E2	2.8773E2
5.5229E2	2.8841E2
5.5272E2	3.1799E2
5.5315E2	3.2368E2
5.5357E2	3.032E2
5.540E2	3.1503E2
5.5443E2	2.8818E2
5.5485E2	3.0252E2
5.5528E2	2.9546E2
5.5571E2	2.9637E2
5.5613E2	2.991E2
5.5656E2	2.7976E2
5.5699E2	2.8113E2
5.5741E2	3.0092E2
5.5784E2	3.032E2
5.5827E2	2.8522E2
5.5869E2	2.8704E2
5.5912E2	3.0729E2
5.5954E2	2.9592E2
5.5997E2	2.9478E2
5.604E2	3.098E2
5.6082E2	2.7407E2
5.6125E2	3.057E2
5.6167E2	2.9888E2
5.621E2	2.9819E2
5.6253E2	2.8727E2
5.6295E2	2.9842E2
5.6338E2	2.8158E2
5.638E2	3.0343E2
5.6423E2	2.8773E2
5.6465E2	2.9569E2
5.6508E2	2.7384E2
5.6551E2	2.8841E2
5.6593E2	2.7726E2
5.6636E2	3.0365E2
5.6678E2	2.9319E2
5.6721E2	3.1503E2
5.6763E2	3.1344E2
5.6806E2	3.007E2
5.6848E2	2.784E2
5.6891E2	2.7339E2
5.6933E2	3.0934E2
5.6976E2	3.1844E2
5.7018E2	3.0365E2
5.7061E2	3.255E2
5.7103E2	3.0593E2
5.7146E2	3.0161E2
5.7188E2	3.0866E2
5.7231E2	2.7771E2
5.7273E2	2.875E2
5.7316E2	3.148E2
5.7358E2	2.9478E2
5.7401E2	3.1162E2
5.7443E2	3.1116E2
5.7486E2	3.3005E2
5.7528E2	2.8704E2
5.7571E2	3.0684E2
5.7613E2	2.6816E2
5.7655E2	3.1207E2
5.7698E2	3.0115E2
5.774E2	3.1298E2
5.7783E2	3.0616E2
5.7825E2	2.8909E2
5.7868E2	3.2641E2
5.791E2	3.3073E2
5.7952E2	3.1753E2
5.7995E2	3.2095E2
5.8037E2	3.3597E2
5.808E2	3.4166E2
5.8122E2	3.1913E2
5.8164E2	3.3779E2
5.8207E2	3.3278E2
5.8249E2	3.3574E2
5.8291E2	3.4939E2
5.8334E2	3.3028E2
5.8376E2	3.3801E2
5.8419E2	3.3983E2
5.8461E2	3.6373E2
5.8503E2	3.3324E2
5.8546E2	3.8193E2
5.8588E2	3.8239E2
5.863E2	3.6919E2
5.8673E2	3.6714E2
5.8715E2	3.8512E2
5.8757E2	3.7511E2
5.880E2	3.8125E2
5.8842E2	3.8808E2
5.8884E2	3.8785E2
5.8927E2	3.9172E2
5.8969E2	3.9763E2
5.9011E2	4.238E2
5.9054E2	4.3222E2
5.9096E2	4.3313E2
5.9138E2	4.3427E2
5.918E2	4.6681E2
5.9223E2	4.7432E2
5.9265E2	4.5702E2
5.9307E2	4.7318E2
5.9349E2	4.8547E2
5.9392E2	4.9821E2
5.9434E2	5.0686E2
5.9476E2	5.3052E2
5.9519E2	5.5373E2
5.9561E2	5.353E2
5.9603E2	5.7672E2
5.9645E2	5.7467E2
5.9687E2	5.9697E2
5.973E2	6.509E2
5.9772E2	6.4316E2
5.9814E2	6.5659E2
5.9856E2	6.9595E2
5.9899E2	7.0642E2
5.9941E2	7.137E2
5.9983E2	7.5421E2
6.0025E2	7.9289E2
6.0067E2	7.6809E2
6.011E2	8.3431E2
6.0152E2	8.5296E2
6.0194E2	9.053E2
6.0236E2	9.4034E2
6.0278E2	9.6173E2
6.032E2	9.9587E2
6.0363E2	10.004E2
6.0405E2	10.773E2
6.0447E2	10.999E2
6.0489E2	11.197E2
6.0531E2	11.572E2
6.0573E2	12.011E2
6.0615E2	12.676E2
6.0658E2	12.956E2
6.070E2	13.638E2
6.0742E2	14.016E2
6.0784E2	14.403E2
6.0826E2	15.054E2
6.0868E2	15.331E2
6.091E2	16.187E2
6.0952E2	16.398E2
6.0995E2	16.894E2
6.1037E2	17.88E2
6.1079E2	18.06E2
6.1121E2	18.874E2
6.1163E2	19.643E2
6.1205E2	19.989E2
6.1247E2	20.899E2
6.1289E2	21.646E2
6.1331E2	22.326E2
6.1373E2	23.293E2
6.1415E2	23.844E2
6.1457E2	24.918E2
6.1499E2	25.912E2
6.1541E2	27.08E2
6.1583E2	27.753E2
6.1625E2	28.714E2
6.1667E2	30.393E2
6.1709E2	31.162E2
6.1751E2	31.99E2
6.1794E2	33.952E2
6.1836E2	34.664E2
6.1878E2	36.093E2
6.192E2	37.854E2
6.1962E2	39.113E2
6.2003E2	40.592E2
6.2045E2	42.11E2
6.2087E2	43.511E2
6.2129E2	45.002E2
6.2171E2	46.424E2
6.2213E2	48.083E2
6.2255E2	49.855E2
6.2297E2	52.022E2
6.2339E2	53.929E2
6.2381E2	56.193E2
6.2423E2	58.505E2
6.2465E2	61.001E2
6.2507E2	62.846E2
6.2549E2	65.229E2
6.2591E2	67.202E2
6.2633E2	70.012E2
6.2675E2	73.475E2
6.2717E2	75.598E2
6.2759E2	78.652E2
6.280E2	81.767E2
6.2842E2	85.354E2
6.2884E2	88.023E2
6.2926E2	91.204E2
6.2968E2	94.927E2
6.301E2	99.48E2
6.3052E2	1.0347E4
6.3094E2	1.0705E4
6.3135E2	1.1248E4
6.3177E2	1.1582E4
6.3219E2	1.215E4
6.3261E2	1.2693E4
6.3303E2	1.3261E4
6.3345E2	1.3853E4
6.3387E2	1.436E4
6.3428E2	1.498E4
6.347E2	1.5738E4
6.3512E2	1.6422E4
6.3554E2	1.7084E4
6.3596E2	1.7822E4
6.3638E2	1.8509E4
6.3679E2	1.9391E4
6.3721E2	2.0214E4
6.3763E2	2.0979E4
6.3805E2	2.1916E4
6.3847E2	2.2935E4
6.3888E2	2.3624E4
6.393E2	2.477E4
6.3972E2	2.5428E4
6.4014E2	2.6618E4
6.4055E2	2.7705E4
6.4097E2	2.8428E4
6.4139E2	2.9515E4
6.4181E2	3.0648E4
6.4222E2	3.155E4
6.4264E2	3.2558E4
6.4306E2	3.3505E4
6.4348E2	3.4518E4
6.4389E2	3.5256E4
6.4431E2	3.6201E4
6.4473E2	3.6682E4
6.4515E2	3.7414E4
6.4556E2	3.7848E4
6.4598E2	3.8345E4
6.464E2	3.8605E4
6.4681E2	3.8685E4
6.4723E2	3.8874E4
6.4765E2	3.8689E4
6.4806E2	3.8351E4
6.4848E2	3.8088E4
6.489E2	3.7288E4
6.4931E2	3.6937E4
6.4973E2	3.599E4
6.5015E2	3.4878E4
6.5056E2	3.4123E4
6.5098E2	3.2896E4
6.514E2	3.1779E4
6.5181E2	3.0353E4
6.5223E2	2.9123E4
6.5265E2	2.7737E4
6.5306E2	2.6401E4
6.5348E2	2.4967E4
6.5389E2	2.349E4
6.5431E2	2.1956E4
6.5473E2	2.0496E4
6.5514E2	1.9005E4
6.5556E2	1.7461E4
6.5597E2	1.6147E4
6.5639E2	1.4916E4
6.5681E2	1.3487E4
6.5722E2	1.2462E4
6.5764E2	1.1372E4
6.5805E2	1.0354E4
6.5847E2	94.478E2
6.5889E2	85.447E2
6.593E2	78.188E2
6.5972E2	71.216E2
6.6013E2	64.394E2
6.6055E2	58.971E2
6.6096E2	53.719E2
6.6138E2	48.256E2
6.6179E2	44.656E2
6.6221E2	40.671E2
6.6262E2	37.684E2
6.6304E2	34.532E2
6.6345E2	31.865E2
6.6387E2	28.695E2
6.6428E2	26.606E2
6.647E2	24.586E2
6.6511E2	22.367E2
6.6553E2	20.488E2
6.6594E2	18.922E2
6.6636E2	17.302E2
6.6677E2	15.809E2
6.6719E2	14.478E2
6.676E2	13.326E2
6.6802E2	12.514E2
6.6843E2	11.579E2
6.6885E2	10.578E2
6.6926E2	9.8904E2
6.6967E2	8.9119E2
6.7009E2	8.3431E2
6.705E2	7.6945E2
6.7092E2	7.1165E2
6.7133E2	6.7479E2
6.7175E2	6.0698E2
6.7216E2	5.8286E2
6.7257E2	5.2916E2
6.7299E2	4.6158E2
6.734E2	4.4223E2
6.7382E2	3.9354E2
6.7423E2	3.9718E2
6.7464E2	3.6691E2
6.7506E2	3.4097E2
6.7547E2	3.189E2
6.7588E2	2.8363E2
6.763E2	2.7658E2
6.7671E2	2.4972E2
6.7713E2	2.2879E2
6.7754E2	2.3994E2
6.7795E2	2.1491E2
6.7837E2	1.810E2
6.7878E2	1.7918E2
6.7919E2	1.7759E2
6.7961E2	1.8032E2
6.8002E2	1.587E2
6.8043E2	1.4528E2
6.8085E2	1.669E2
6.8126E2	1.1365E2
6.8167E2	1.1319E2
6.8208E2	1.0659E2
6.825E2	98.175E0
6.8291E2	1.0295E2
6.8332E2	95.899E0
6.8374E2	83.839E0
6.8415E2	88.39E0
6.8456E2	99.995E0
6.8497E2	67.227E0
6.8539E2	82.246E0
6.858E2	51.981E0
6.8621E2	72.916E0
6.8662E2	59.036E0
6.8704E2	30.819E0
6.8745E2	37.191E0
6.8786E2	34.005E0
6.8827E2	57.215E0
6.8869E2	42.197E0
6.891E2	29.909E0
6.8951E2	56.532E0
6.8992E2	25.358E0
6.9033E2	45.155E0
6.9075E2	23.765E0
6.9116E2	29.681E0
6.9157E2	27.178E0
6.9198E2	15.346E0
6.9239E2	-2.176E0
6.928E2	20.807E0
6.9322E2	10.112E0
6.9363E2	7.1537E0
6.9404E2	7.3812E0
6.9445E2	25.813E0
6.9486E2	16.711E0
6.9527E2	19.441E0
6.9568E2	3.0577E0
6.961E2	5.1057E0
6.9651E2	-8.0923E0
6.9692E2	3.2853E0
6.9733E2	5.3333E0
6.9774E2	-9.9127E0
6.9815E2	30.136E0
6.9856E2	2.3751E0
6.9897E2	7.1537E0
6.9939E2	18.531E0
6.998E2	23.765E0
7.0021E2	10.112E0
7.0062E2	3.5128E0
7.0103E2	-8.0923E0
7.0144E2	11.932E0
7.0185E2	2.6026E0
7.0226E2	-5.5892E0
7.0267E2	3.0577E0
7.0308E2	-15.146E0
7.0349E2	7.8363E0
7.039E2	-3.0862E0
7.0431E2	-16.284E0
7.0472E2	-6.9546E0
7.0513E2	-34.716E0
7.0554E2	-22.428E0
7.0595E2	-4.679E0
7.0636E2	-2.4035E0
7.0677E2	-18.787E0
7.0718E2	-27.662E0
7.0759E2	-2.6311E0
7.080E2	-10.595E0
7.0841E2	16.938E0
7.0882E2	-8.0923E0
7.0923E2	2.3751E0
7.0964E2	8.0639E0
7.1005E2	-19.697E0
7.1046E2	1.4649E0
7.1087E2	-3.5413E0
7.1128E2	2.6026E0
7.1169E2	-14.464E0
7.121E2	-17.65E0
7.1251E2	-13.781E0
7.1292E2	-24.931E0
7.1333E2	-24.476E0
7.1374E2	-18.787E0
7.1415E2	-25.841E0
7.1455E2	-8.5474E0
7.1496E2	-22.201E0
7.1537E2	-18.332E0
7.1578E2	-20.835E0
7.1619E2	-35.171E0
7.166E2	-6.2719E0
7.1701E2	-27.207E0
7.1742E2	-37.447E0
7.1783E2	-33.578E0
7.1823E2	-31.303E0
7.1864E2	-4.4515E0
7.1905E2	-28.344E0
7.1946E2	-9.6852E0
7.1987E2	-9.9127E0
7.2028E2	-13.326E0
7.2069E2	-26.296E0
7.2109E2	-36.536E0
7.215E2	-16.057E0
7.2191E2	-26.296E0
7.2232E2	-20.38E0
7.2273E2	-3.3137E0
7.2313E2	-14.009E0
7.2354E2	-17.422E0
7.2395E2	-16.512E0
7.2436E2	-7.1821E0
7.2477E2	-12.188E0
7.2517E2	-36.081E0
7.2558E2	-16.967E0
7.2599E2	-34.033E0
7.264E2	-51.555E0
7.268E2	-17.194E0
7.2721E2	-33.123E0
7.2762E2	-21.29E0
7.2803E2	-37.902E0
7.2843E2	-4.4515E0
7.2884E2	-16.284E0
7.2925E2	-24.021E0
7.2966E2	-17.422E0
7.3006E2	-14.691E0
7.3047E2	-20.608E0
7.3088E2	-13.098E0
7.3129E2	5.1057E0
7.3169E2	-17.65E0
7.321E2	-10.14E0
7.3251E2	-23.793E0
7.3291E2	-28.117E0
7.3332E2	-36.081E0
7.3373E2	-23.793E0
7.3413E2	-16.967E0
7.3454E2	-31.075E0
7.3495E2	-18.56E0
7.3535E2	-26.069E0
7.3576E2	-37.219E0
7.3617E2	-18.787E0
7.3657E2	-32.44E0
7.3698E2	6.6986E0
7.3738E2	-24.476E0
7.3779E2	-17.65E0
7.382E2	-22.883E0
7.386E2	-34.033E0
7.3901E2	-6.9546E0
7.3942E2	-18.56E0
7.3982E2	-20.608E0
7.4023E2	-14.464E0
7.4063E2	-29.255E0
7.4104E2	-27.662E0
7.4145E2	-8.5474E0
7.4185E2	-81.065E-2
7.4226E2	-49.962E0
7.4266E2	-26.069E0
7.4307E2	-32.668E0
7.4347E2	-24.021E0
7.4388E2	-31.075E0
7.4428E2	-18.332E0
7.4469E2	-7.8648E0
7.4509E2	-23.338E0
7.455E2	-29.255E0
7.4591E2	-26.296E0
7.4631E2	-19.47E0
7.4672E2	-16.967E0
7.4712E2	-20.608E0
7.4753E2	-12.80E-2
7.4793E2	-9.0025E0
7.4834E2	-35.399E0
7.4874E2	-24.249E0
7.4915E2	-8.5474E0
7.4955E2	-24.476E0
7.4995E2	-25.386E0
7.5036E2	-25.386E0
7.5076E2	-34.033E0
7.5117E2	-13.781E0
7.5157E2	-39.039E0
7.5198E2	-23.566E0
7.5238E2	-18.332E0
7.5279E2	-26.296E0
7.5319E2	-28.80E0
7.5359E2	-36.991E0
7.540E2	-30.848E0
7.544E2	-34.033E0
7.5481E2	-19.697E0
7.5521E2	-20.38E0
7.5562E2	-34.033E0
7.5602E2	-39.95E0
7.5642E2	-22.201E0
7.5683E2	-7.1821E0
7.5723E2	-7.8648E0
7.5763E2	-16.057E0
7.5804E2	-23.338E0
7.5844E2	-15.602E0
7.5885E2	-12.643E0
7.5925E2	-36.309E0
7.5965E2	-25.386E0
7.6006E2	-31.985E0
7.6046E2	-3.7688E0
7.6086E2	-21.973E0
7.6127E2	-12.416E0
7.6167E2	-12.643E0
7.6207E2	-7.8648E0
7.6248E2	-9.9127E0
7.6288E2	-23.111E0
7.6328E2	-34.033E0
7.6368E2	-33.123E0
7.6409E2	-16.967E0
7.6449E2	-31.985E0
7.6489E2	-42.68E0
7.653E2	-30.392E0
7.657E2	-32.213E0
7.661E2	-32.668E0
7.665E2	-27.434E0
7.6691E2	-37.219E0
7.6731E2	-14.919E0
7.6771E2	-22.656E0
7.6811E2	-29.255E0
7.6852E2	-14.236E0
7.6892E2	-18.56E0
7.6932E2	-18.56E0
7.6972E2	-32.44E0
7.7012E2	-9.4576E0
7.7053E2	-19.242E0
7.7093E2	-34.943E0
7.7133E2	-35.626E0
7.7173E2	-21.973E0
7.7213E2	-41.77E0
7.7254E2	-27.662E0
7.7294E2	-42.225E0
7.7334E2	-33.578E0
7.7374E2	-28.117E0
7.7414E2	-40.405E0
7.7454E2	-40.177E0
7.7495E2	-21.518E0
7.7535E2	-30.392E0
7.7575E2	-44.501E0
7.7615E2	-16.512E0
7.7655E2	-11.278E0
7.7695E2	-34.488E0
7.7735E2	-15.829E0
7.7775E2	-26.069E0
7.7816E2	-25.386E0
7.7856E2	-19.015E0
7.7896E2	-40.405E0
7.7936E2	-46.094E0
7.7976E2	-22.201E0
7.8016E2	-31.303E0
7.8056E2	-30.392E0
7.8096E2	-61.795E0
7.8136E2	-35.171E0
7.8176E2	-24.476E0
7.8216E2	-18.332E0
7.8256E2	-49.734E0
7.8296E2	-26.069E0
7.8337E2	-29.255E0
7.8377E2	-22.883E0
7.8417E2	-12.188E0
7.8457E2	-21.063E0
7.8497E2	-18.787E0
7.8537E2	-14.919E0
7.8577E2	-20.835E0
7.8617E2	-9.4576E0
7.8657E2	-22.428E0
7.8697E2	-11.733E0
7.8737E2	-19.697E0
7.8777E2	-33.578E0
7.8817E2	-41.542E0
7.8857E2	-28.572E0
7.8896E2	-35.171E0
7.8936E2	-27.434E0
7.8976E2	-45.411E0
7.9016E2	-18.332E0
7.9056E2	-27.434E0
7.9096E2	-26.979E0
7.9136E2	-19.697E0
7.9176E2	-27.207E0
7.9216E2	-35.171E0
7.9256E2	-34.716E0
7.9296E2	-43.363E0
7.9336E2	-32.213E0
7.9376E2	-7.1821E0
7.9416E2	-2.8586E0
7.9455E2	-39.95E0
7.9495E2	-42.908E0
7.9535E2	-39.495E0
7.9575E2	-11.961E0
7.9615E2	-31.985E0
7.9655E2	-26.296E0
7.9695E2	-33.806E0
7.9734E2	-26.979E0
7.9774E2	-28.80E0
7.9814E2	-12.871E0
7.9854E2	-19.47E0
7.9894E2	-31.758E0
7.9934E2	-9.4576E0
7.9973E2	-5.3617E0
8.0013E2	-40.632E0
8.0053E2	-35.626E0
8.0093E2	-25.386E0
8.0133E2	-30.848E0
8.0172E2	-25.614E0
8.0212E2	-38.129E0
8.0252E2	-27.207E0
8.0292E2	-29.937E0
8.0332E2	-48.141E0
8.0371E2	-27.207E0
8.0411E2	-43.135E0
8.0451E2	-32.213E0
8.0491E2	-26.069E0
8.053E2	-36.081E0
8.057E2	-32.895E0
8.061E2	-34.488E0
8.065E2	-31.53E0
8.0689E2	-11.733E0
8.0729E2	-41.998E0
8.0769E2	-42.453E0
8.0808E2	-42.908E0
8.0848E2	-22.656E0
8.0888E2	-19.015E0
8.0928E2	-19.015E0
8.0967E2	-50.645E0
8.1007E2	-37.674E0
8.1047E2	-8.3199E0
8.1086E2	-32.44E0
8.1126E2	-34.488E0
8.1166E2	-17.422E0
8.1205E2	-11.506E0
8.1245E2	-31.303E0
8.1284E2	-38.812E0
8.1324E2	-25.841E0
8.1364E2	-23.793E0
8.1403E2	-11.961E0
8.1443E2	-20.835E0
8.1483E2	-37.674E0
8.1522E2	-17.422E0
8.1562E2	-30.165E0
8.1601E2	-6.2719E0
8.1641E2	-37.674E0
8.1681E2	-34.943E0
8.172E2	-27.662E0
8.176E2	-44.956E0
8.1799E2	-26.524E0
8.1839E2	-21.973E0
8.1878E2	-23.111E0
8.1918E2	-19.697E0
8.1957E2	-27.434E0
8.1997E2	-16.967E0
8.2037E2	-18.332E0
8.2076E2	-25.159E0
8.2116E2	-27.662E0
8.2155E2	-38.812E0
8.2195E2	-8.775E0
8.2234E2	-25.614E0
8.2274E2	-16.967E0
8.2313E2	-21.745E0
8.2353E2	-59.064E0
8.2392E2	-26.524E0
8.2432E2	-21.745E0
8.2471E2	-24.249E0
8.2511E2	-22.201E0
8.255E2	-29.71E0
8.2589E2	-42.453E0
8.2629E2	-47.914E0
8.2668E2	-32.668E0
8.2708E2	-26.069E0
8.2747E2	-37.674E0
8.2787E2	-48.824E0
8.2826E2	-35.854E0
8.2866E2	-38.812E0
8.2905E2	-19.015E0
8.2944E2	-27.889E0
8.2984E2	-18.56E0
8.3023E2	-35.399E0
8.3063E2	-38.812E0
8.3102E2	-32.895E0
8.3141E2	-34.943E0
8.3181E2	-41.087E0
8.322E2	-43.135E0
8.3259E2	-19.015E0
8.3299E2	-22.428E0
8.3338E2	-13.781E0
8.3378E2	-45.183E0
8.3417E2	-31.985E0
8.3456E2	-22.883E0
8.3496E2	-19.697E0
8.3535E2	-14.919E0
8.3574E2	-26.069E0
8.3613E2	-28.117E0
8.3653E2	-37.219E0
8.3692E2	-30.165E0
8.3731E2	-29.937E0
8.3771E2	-43.818E0
8.381E2	-34.261E0
8.3849E2	-18.56E0
8.3889E2	-38.584E0
8.3928E2	-24.931E0
8.3967E2	-35.399E0
8.4006E2	-6.727E0
8.4046E2	-28.117E0
8.4085E2	-28.572E0
8.4124E2	-15.602E0
8.4163E2	-34.943E0
8.4203E2	-22.201E0
8.4242E2	-35.399E0
8.4281E2	-55.878E0
8.432E2	-28.80E0
8.4359E2	-26.296E0
8.4399E2	-39.95E0
8.4438E2	-50.417E0
8.4477E2	-41.087E0
8.4516E2	-31.53E0
8.4555E2	-11.733E0
8.4595E2	-23.111E0
8.4634E2	-26.979E0
8.4673E2	-21.29E0
8.4712E2	-27.434E0
8.4751E2	-30.62E0
8.479E2	-16.967E0
8.4829E2	-25.841E0
8.4869E2	-27.207E0
8.4908E2	-45.411E0
8.4947E2	-21.973E0
8.4986E2	-23.111E0
8.5025E2	-12.871E0
8.5064E2	-33.351E0
8.5103E2	-28.572E0
8.5142E2	1.920E0
8.5181E2	-17.194E0
8.5221E2	-31.303E0
8.526E2	-41.087E0
8.5299E2	-41.77E0
8.5338E2	-36.309E0
8.5377E2	-13.781E0
8.5416E2	-40.177E0
8.5455E2	-23.338E0
8.5494E2	-19.242E0
8.5533E2	-31.985E0
8.5572E2	-25.386E0
8.5611E2	-24.249E0
8.565E2	-14.691E0
8.5689E2	-10.368E0
8.5728E2	-24.021E0
8.5767E2	-37.219E0
8.5806E2	-23.566E0
8.5845E2	-13.554E0
8.5884E2	-31.075E0
8.5923E2	-31.303E0
8.5962E2	-30.62E0
8.6001E2	-19.697E0
8.604E2	-33.806E0
8.6079E2	-21.29E0
8.6118E2	-39.95E0
8.6157E2	-47.914E0
8.6196E2	-35.626E0
8.6235E2	-15.374E0
8.6274E2	-42.225E0
8.6313E2	-28.344E0
8.6352E2	-42.908E0
8.639E2	-26.296E0
8.6429E2	-11.961E0
8.6468E2	-32.668E0
8.6507E2	-20.153E0
8.6546E2	-45.183E0
8.6585E2	-50.872E0
8.6624E2	-35.854E0
8.6663E2	-34.488E0
8.6702E2	-42.908E0
8.674E2	-42.225E0
8.6779E2	-33.123E0
8.6818E2	-27.207E0
8.6857E2	-18.105E0
8.6896E2	-40.632E0
8.6935E2	-37.674E0
8.6973E2	-12.416E0
8.7012E2	-25.614E0
8.7051E2	-21.29E0
8.709E2	-24.476E0
8.7129E2	-36.991E0
8.7167E2	-12.416E0
8.7206E2	-35.399E0
8.7245E2	-13.326E0
8.7284E2	-40.632E0
8.7323E2	-6.2719E0
8.7361E2	-15.146E0
8.740E2	-49.052E0
8.7439E2	-44.956E0
8.7478E2	-29.255E0
8.7516E2	-19.242E0
8.7555E2	-36.764E0
8.7594E2	-38.129E0
8.7633E2	-30.392E0
8.7671E2	-22.656E0
8.771E2	-33.351E0
8.7749E2	-41.998E0
8.7787E2	-31.303E0
8.7826E2	-26.069E0
8.7865E2	-39.95E0
8.7904E2	-18.105E0
8.7942E2	-31.758E0
8.7981E2	-14.464E0
8.802E2	-10.823E0
8.8058E2	-25.841E0
8.8097E2	-21.29E0
8.8136E2	-25.386E0
8.8174E2	-38.584E0
8.8213E2	-9.6852E0
8.8252E2	-21.29E0
8.829E2	-32.44E0
8.8329E2	-28.344E0
8.8367E2	-21.518E0
8.8406E2	1.0098E0
8.8445E2	-16.284E0
8.8483E2	-57.926E0
8.8522E2	-43.59E0
8.856E2	-29.482E0
8.8599E2	-39.039E0
8.8638E2	-28.80E0
8.8676E2	-44.501E0
8.8715E2	-44.273E0
8.8753E2	-44.956E0
8.8792E2	-37.674E0
8.883E2	-30.392E0
8.8869E2	-39.267E0
8.8907E2	-46.094E0
8.8946E2	-24.249E0
8.8984E2	-7.1821E0
8.9023E2	-38.129E0
8.9062E2	-28.80E0
8.910E2	-19.697E0
8.9139E2	-23.111E0
8.9177E2	-21.973E0
8.9216E2	-13.326E0
8.9254E2	-21.063E0
8.9292E2	-16.057E0
8.9331E2	-13.326E0
8.9369E2	-28.572E0
8.9408E2	-35.854E0
8.9446E2	-45.411E0
8.9485E2	-58.381E0
8.9523E2	-37.447E0
8.9562E2	-31.075E0
8.960E2	-36.991E0
8.9639E2	-24.476E0
8.9677E2	-40.86E0
8.9715E2	-47.004E0
8.9754E2	-25.841E0
8.9792E2	-25.159E0
8.9831E2	-27.662E0
8.9869E2	-35.399E0
8.9907E2	-20.153E0
8.9946E2	-30.392E0
8.9984E2	-48.597E0
9.0022E2	-21.063E0
9.0061E2	-17.65E0
9.0099E2	-21.063E0
9.0138E2	-42.68E0
9.0176E2	-31.758E0
9.0214E2	-46.776E0
9.0253E2	-50.645E0
9.0291E2	-34.488E0
9.0329E2	-27.207E0
9.0368E2	-29.027E0
9.0406E2	-38.584E0
9.0444E2	-27.207E0
9.0482E2	-41.542E0
9.0521E2	-22.428E0
9.0559E2	-34.033E0
9.0597E2	-15.146E0
9.0636E2	-25.614E0
9.0674E2	-34.943E0
9.0712E2	-54.74E0
9.075E2	-42.453E0
9.0789E2	-46.776E0
9.0827E2	-39.95E0
9.0865E2	-17.65E0
9.0903E2	-43.363E0
9.0941E2	-38.129E0
9.098E2	-24.249E0
9.1018E2	-28.572E0
9.1056E2	-36.309E0
9.1094E2	-22.883E0
9.1133E2	-29.482E0
9.1171E2	-29.482E0
9.1209E2	-53.375E0
9.1247E2	-32.213E0
9.1285E2	-17.194E0
9.1323E2	-17.422E0
9.1362E2	-29.937E0
9.140E2	-19.925E0
9.1438E2	-41.087E0
9.1476E2	-17.422E0
9.1514E2	-39.039E0
9.1552E2	-49.052E0
9.159E2	-18.787E0
9.1629E2	-32.213E0
9.1667E2	-16.967E0
9.1705E2	-25.159E0
9.1743E2	-34.261E0
9.1781E2	-46.321E0
9.1819E2	-26.752E0
9.1857E2	-31.985E0
9.1895E2	-32.895E0
9.1933E2	-32.44E0
9.1971E2	-25.386E0
9.2009E2	-21.063E0
9.2047E2	13.753E0
9.2085E2	-12.188E0
9.2123E2	-6.4995E0
9.2162E2	-27.889E0
9.220E2	-40.177E0
9.2238E2	-53.375E0
9.2276E2	-19.925E0
9.2314E2	-36.081E0
9.2352E2	-41.998E0
9.239E2	-28.344E0
9.2428E2	-32.668E0
9.2466E2	-22.656E0
9.2504E2	-35.626E0
9.2542E2	-35.171E0
9.2579E2	-29.71E0
9.2617E2	-25.841E0
9.2655E2	-10.14E0
9.2693E2	-13.098E0
9.2731E2	-6.9546E0
9.2769E2	-16.284E0
9.2807E2	-27.662E0
9.2845E2	-29.255E0
9.2883E2	-32.213E0
9.2921E2	-30.392E0
9.2959E2	-24.476E0
9.2997E2	-32.668E0
9.3035E2	-38.584E0
9.3072E2	-42.68E0
9.311E2	-21.063E0
9.3148E2	-25.614E0
9.3186E2	-26.069E0
9.3224E2	-28.117E0
9.3262E2	-38.357E0
9.330E2	-18.332E0
9.3338E2	-40.86E0
9.3375E2	-29.71E0
9.3413E2	-39.722E0
9.3451E2	-25.386E0
9.3489E2	-53.83E0
9.3527E2	-19.47E0
9.3564E2	-16.512E0
9.3602E2	-30.848E0
9.364E2	-33.806E0
9.3678E2	-43.135E0
9.3716E2	-27.889E0
9.3753E2	-38.812E0
9.3791E2	-27.207E0
9.3829E2	-41.315E0
9.3867E2	-18.56E0
9.3904E2	-31.075E0
9.3942E2	-16.284E0
9.398E2	-22.656E0
9.4018E2	-15.146E0
9.4055E2	-11.961E0
9.4093E2	-16.967E0
9.4131E2	-23.338E0
9.4169E2	-21.745E0
9.4206E2	-34.488E0
9.4244E2	-38.584E0
9.4282E2	-15.829E0
9.4319E2	-17.65E0
9.4357E2	-46.321E0
9.4395E2	-43.59E0
9.4432E2	-36.081E0
9.447E2	-35.171E0
9.4508E2	-29.937E0
9.4545E2	-31.303E0
9.4583E2	-44.273E0
9.4621E2	-41.087E0
9.4658E2	-26.979E0
9.4696E2	-37.674E0
9.4733E2	-51.555E0
9.4771E2	-14.464E0
9.4809E2	-15.146E0
9.4846E2	-27.662E0
9.4884E2	-40.177E0
9.4921E2	-58.381E0
9.4959E2	-37.447E0
9.4997E2	-37.902E0
9.5034E2	-43.818E0
9.5072E2	-31.075E0
9.5109E2	-24.931E0
9.5147E2	-28.344E0
9.5184E2	-44.273E0
9.5222E2	-33.806E0
9.5259E2	-17.877E0
9.5297E2	-35.171E0
9.5335E2	-35.399E0
9.5372E2	-38.812E0
9.541E2	-40.632E0
9.5447E2	-24.249E0
9.5485E2	-8.775E0
9.5522E2	-33.123E0
9.556E2	-24.704E0
9.5597E2	-36.081E0
9.5634E2	-29.482E0
9.5672E2	-27.889E0
9.5709E2	-37.447E0
9.5747E2	-36.536E0
9.5784E2	-49.962E0
9.5822E2	-37.447E0
9.5859E2	-39.722E0
9.5897E2	-28.344E0
9.5934E2	-15.146E0
9.5971E2	-36.309E0
9.6009E2	-22.428E0
9.6046E2	-17.65E0
9.6084E2	-26.296E0
9.6121E2	-23.338E0
9.6158E2	-14.691E0
9.6196E2	-19.697E0
9.6233E2	-22.201E0
9.6271E2	-27.207E0
9.6308E2	-21.518E0
9.6345E2	-34.261E0
9.6383E2	-41.315E0
9.642E2	-28.572E0
9.6457E2	-22.428E0
9.6495E2	-26.752E0
9.6532E2	-15.146E0
9.6569E2	-26.524E0
9.6607E2	-26.752E0
9.6644E2	-39.95E0
9.6681E2	-21.29E0
9.6718E2	-30.62E0
9.6756E2	-19.697E0
9.6793E2	-33.578E0
9.683E2	-53.375E0
9.6867E2	-16.739E0
9.6905E2	-37.674E0
9.6942E2	-27.889E0
9.6979E2	-31.53E0
9.7016E2	-26.524E0
9.7054E2	-28.117E0
9.7091E2	-46.549E0
9.7128E2	-31.075E0
9.7165E2	-33.578E0
9.7203E2	-43.135E0
9.724E2	-37.902E0
9.7277E2	-44.728E0
9.7314E2	-19.47E0
9.7351E2	-37.674E0
9.7389E2	-36.764E0
9.7426E2	-21.973E0
9.7463E2	-35.399E0
9.750E2	-22.201E0
9.7537E2	-16.739E0
9.7574E2	-4.4515E0
9.7611E2	-8.5474E0
9.7649E2	-26.069E0
9.7686E2	-37.447E0
9.7723E2	-11.733E0
9.776E2	-29.255E0
9.7797E2	-40.86E0
9.7834E2	4.4292E2
9.7871E2	-26.069E0
9.7908E2	-40.177E0
9.7945E2	-32.668E0
9.7982E2	-19.242E0
9.802E2	-28.344E0
9.8057E2	-38.812E0
9.8094E2	-30.392E0
9.8131E2	-37.219E0
9.8168E2	-21.29E0
9.8205E2	-15.374E0
9.8242E2	-10.595E0
9.8279E2	-21.518E0
9.8316E2	-15.374E0
9.8353E2	-61.112E0
9.839E2	-43.363E0
9.8427E2	-36.536E0
9.8464E2	-30.848E0
9.8501E2	-36.991E0
9.8538E2	-39.95E0
9.8575E2	-39.722E0
9.8612E2	-14.691E0
9.8649E2	-25.614E0
9.8686E2	-48.597E0
9.8723E2	-16.057E0
9.876E2	-27.434E0
9.8796E2	-39.039E0
9.8833E2	-33.351E0
9.887E2	-38.357E0
9.8907E2	-21.29E0
9.8944E2	-37.902E0
9.8981E2	-48.369E0
9.9018E2	-16.057E0
9.9055E2	-30.165E0
9.9092E2	-26.752E0
9.9129E2	-4.9066E0
9.9165E2	-27.207E0
9.9202E2	-29.937E0
9.9239E2	-40.405E0
9.9276E2	-46.321E0
9.9313E2	-25.841E0
9.935E2	-33.806E0
9.9387E2	-33.578E0
9.9423E2	-23.793E0
9.946E2	-13.554E0
9.9497E2	-11.05E0
9.9534E2	-29.027E0
9.9571E2	-23.793E0
9.9607E2	-22.656E0
9.9644E2	-21.29E0
9.9681E2	-28.344E0
9.9718E2	-17.194E0
9.9755E2	-23.111E0
9.9791E2	-27.207E0
9.9828E2	-25.841E0
9.9865E2	-36.081E0
9.9902E2	-21.973E0
9.9938E2	-46.549E0
9.9975E2	-19.47E0
10.001E2	-38.812E0
10.005E2	-39.495E0
10.009E2	-29.482E0
10.012E2	-36.764E0
10.016E2	-38.584E0
10.02E2	-29.937E0
10.023E2	-9.9127E0
10.027E2	-8.5474E0
10.031E2	-34.261E0
10.034E2	-47.686E0
10.038E2	-11.278E0
10.042E2	-9.4576E0
10.045E2	-37.902E0
10.049E2	-29.71E0
10.053E2	-40.632E0
10.056E2	-34.488E0
10.06E2	-46.321E0
10.064E2	-6.2719E0
10.067E2	-32.668E0
10.071E2	-20.153E0
10.074E2	-32.44E0
10.078E2	-6.727E0
10.082E2	-25.841E0
10.085E2	-30.848E0
10.089E2	-27.889E0
10.093E2	-21.29E0
10.096E2	-23.566E0
10.10E2	-29.255E0
10.104E2	-41.087E0
10.107E2	-37.219E0
10.111E2	-36.309E0
10.115E2	-36.309E0
10.118E2	-18.56E0
10.122E2	-12.643E0
10.126E2	-25.614E0
10.129E2	-20.153E0
10.133E2	-43.363E0
10.137E2	-13.781E0
10.14E2	-29.937E0
10.144E2	-24.476E0
10.148E2	-50.645E0
10.151E2	-41.315E0
10.155E2	-23.566E0
10.158E2	-32.213E0
10.162E2	-35.626E0
10.166E2	-30.848E0
10.169E2	-39.039E0
10.173E2	-47.686E0
10.177E2	-47.914E0
10.18E2	-28.80E0
10.184E2	-9.4576E0
10.188E2	-33.351E0
10.191E2	-9.9127E0
10.195E2	-6.727E0
10.199E2	-17.877E0
10.202E2	-49.962E0
10.206E2	-30.392E0
10.209E2	-14.236E0
10.213E2	-37.902E0
10.217E2	-33.123E0
10.22E2	-25.614E0
10.224E2	-30.392E0
10.228E2	-17.65E0
10.231E2	-14.691E0
10.235E2	-15.146E0
10.238E2	-34.033E0
10.242E2	-38.584E0
10.246E2	-34.488E0
10.249E2	-20.835E0
10.253E2	-34.716E0
10.257E2	-51.327E0
10.26E2	-42.68E0
10.264E2	-42.908E0
10.267E2	-47.004E0
10.271E2	-23.566E0
10.275E2	-33.351E0
10.278E2	-21.518E0
10.282E2	-6.2719E0
10.286E2	-24.704E0
10.289E2	-24.931E0
10.293E2	-27.889E0
10.296E2	-19.242E0
10.30E2	-7.6372E0
10.304E2	-31.075E0
10.307E2	-52.693E0
10.311E2	-24.704E0
10.315E2	-42.908E0
10.318E2	-46.776E0
10.322E2	-39.495E0
10.325E2	-29.937E0
10.329E2	-46.549E0
10.333E2	-45.183E0
10.336E2	-31.075E0
10.34E2	-26.979E0
10.343E2	-24.931E0
10.347E2	-42.225E0
10.351E2	-72.262E0
10.354E2	-51.10E0
10.358E2	-45.411E0
10.362E2	-38.812E0
10.365E2	-21.745E0
10.369E2	-27.434E0
10.372E2	-38.357E0
10.376E2	-17.422E0
10.38E2	-42.68E0
