Data from JAZA26501_13-53-18-705.txt Node
Date: Sun Sep 29 13:53:18 ADT 2013
User: oceanview
Spectrometer:  JAZA2650
Trigger mode: 0
Integration Time (sec): 1.000000E-1
Scans to average: 10
Electric dark correction enabled: true
Nonlinearity correction enabled: false
Boxcar width: 0
XAxis mode: Wavelengths
Number of Pixels in Spectrum: 2048
>>>>>Begin Spectral Data<<<<<
1.897E2	-9.927E0
1.9015E2	-9.927E0
1.9061E2	-9.927E0
1.9106E2	-19.029E0
1.9151E2	3.9537E0
1.9197E2	12.601E0
1.9242E2	20.337E0
1.9288E2	18.745E0
1.9333E2	1.2231E0
1.9378E2	5.5466E0
1.9424E2	-7.4239E0
1.9469E2	3.9537E0
1.9515E2	-7.4239E0
1.956E2	-13.568E0
1.9605E2	-6.5137E0
1.9651E2	13.738E0
1.9696E2	-7.4239E0
1.9742E2	-8.7892E0
1.9787E2	-5.6035E0
1.9832E2	-7.4239E0
1.9878E2	-19.939E0
1.9923E2	99.554E-2
1.9968E2	-13.795E0
2.0014E2	-19.484E0
2.0059E2	-32.682E0
2.0104E2	-18.119E0
2.015E2	-3.1004E0
2.0195E2	15.559E0
2.0241E2	-30.862E0
2.0286E2	-8.1065E0
2.0331E2	-23.353E0
2.0377E2	-14.478E0
2.0422E2	-7.6514E0
2.0467E2	-31.089E0
2.0513E2	-35.64E0
2.0558E2	-21.76E0
2.0603E2	-17.436E0
2.0649E2	-17.209E0
2.0694E2	-25.173E0
2.0739E2	-22.215E0
2.0785E2	-13.795E0
2.083E2	-20.167E0
2.0875E2	-22.442E0
2.0921E2	-13.568E0
2.0966E2	-20.622E0
2.1011E2	-14.222E-2
2.1056E2	-16.298E0
2.1102E2	-14.222E-2
2.1147E2	-19.257E0
2.1192E2	-12.885E0
2.1238E2	-19.257E0
2.1283E2	-20.167E0
2.1328E2	-1.7351E0
2.1374E2	-34.73E0
2.1419E2	-15.388E0
2.1464E2	-8.5616E0
2.1509E2	-16.298E0
2.1555E2	-18.801E0
2.160E2	-24.035E0
2.1645E2	-8.5616E0
2.169E2	31.288E-2
2.1736E2	-16.526E0
2.1781E2	-23.808E0
2.1826E2	54.044E-2
2.1872E2	-19.712E0
2.1917E2	-18.574E0
2.1962E2	-14.478E0
2.2007E2	3.7262E0
2.2053E2	-13.795E0
2.2098E2	-82.488E-2
2.2143E2	-16.298E0
2.2188E2	-4.4657E0
2.2234E2	-82.488E-2
2.2279E2	-20.849E0
2.2324E2	-13.34E0
2.2369E2	-20.622E0
2.2414E2	12.146E0
2.246E2	-14.25E0
2.2505E2	-3.7831E0
2.255E2	-16.298E0
2.2595E2	-17.209E0
2.2641E2	-27.904E0
2.2686E2	-23.808E0
2.2731E2	9.1874E0
2.2776E2	-10.61E0
2.2821E2	-45.425E0
2.2867E2	-7.6514E0
2.2912E2	-4.4657E0
2.2957E2	-6.7412E0
2.3002E2	-14.706E0
2.3047E2	-11.747E0
2.3093E2	-10.155E0
2.3138E2	-14.25E0
2.3183E2	-34.047E0
2.3228E2	-39.509E0
2.3273E2	-32.227E0
2.3318E2	-3.3279E0
2.3364E2	-22.215E0
2.3409E2	-10.155E0
2.3454E2	-12.885E0
2.3499E2	-14.25E0
2.3544E2	-14.25E0
2.3589E2	-22.67E0
2.3635E2	-21.305E0
2.368E2	-15.388E0
2.3725E2	1.6782E0
2.377E2	-13.34E0
2.3815E2	-31.317E0
2.386E2	-29.496E0
2.3905E2	-7.879E0
2.3951E2	-19.029E0
2.3996E2	-15.843E0
2.4041E2	-59.732E-2
2.4086E2	-28.359E0
2.4131E2	-30.407E0
2.4176E2	-27.221E0
2.4221E2	-8.5616E0
2.4266E2	-4.4657E0
2.4312E2	-14.933E0
2.4357E2	-10.382E0
2.4402E2	-5.1484E0
2.4447E2	-5.3759E0
2.4492E2	-19.939E0
2.4537E2	-21.987E0
2.4582E2	-8.7892E0
2.4627E2	-26.311E0
2.4672E2	-5.831E0
2.4717E2	-14.25E0
2.4763E2	-12.658E0
2.4808E2	-1.9626E0
2.4853E2	-7.6514E0
2.4898E2	-24.263E0
2.4943E2	-25.628E0
2.4988E2	-2.1902E0
2.5033E2	-1.280E0
2.5078E2	5.0915E0
2.5123E2	-36.977E-2
2.5168E2	-15.161E0
2.5213E2	-16.754E0
2.5258E2	-13.795E0
2.5303E2	-16.981E0
2.5348E2	-19.257E0
2.5393E2	-23.125E0
2.5438E2	-7.6514E0
2.5484E2	-11.292E0
2.5529E2	-13.568E0
2.5574E2	-10.382E0
2.5619E2	-17.891E0
2.5664E2	-7.4239E0
2.5709E2	-19.029E0
2.5754E2	-18.801E0
2.5799E2	-12.43E0
2.5844E2	-16.071E0
2.5889E2	-14.706E0
2.5934E2	-36.977E-2
2.5979E2	-18.574E0
2.6024E2	-13.795E0
2.6069E2	-19.484E0
2.6114E2	-59.732E-2
2.6159E2	-36.977E-2
2.6204E2	-25.173E0
2.6249E2	-16.298E0
2.6294E2	-59.732E-2
2.6339E2	-14.478E0
2.6384E2	-13.568E0
2.6429E2	-21.76E0
2.6474E2	-15.616E0
2.6519E2	-16.071E0
2.6564E2	-16.526E0
2.6609E2	-3.5555E0
2.6654E2	-14.25E0
2.6699E2	-1.7351E0
2.6744E2	-13.568E0
2.6789E2	-27.221E0
2.6833E2	-27.448E0
2.6878E2	-13.113E0
2.6923E2	-19.939E0
2.6968E2	-9.927E0
2.7013E2	-15.843E0
2.7058E2	-8.1065E0
2.7103E2	17.152E0
2.7148E2	-24.263E0
2.7193E2	76.799E-2
2.7238E2	-16.071E0
2.7283E2	-10.382E0
2.7328E2	5.5466E0
2.7373E2	-16.298E0
2.7418E2	7.5946E0
2.7463E2	-15.388E0
2.7507E2	-7.6514E0
2.7552E2	-35.64E0
2.7597E2	-6.2861E0
2.7642E2	-36.977E-2
2.7687E2	-15.616E0
2.7732E2	-82.488E-2
2.7777E2	-20.622E0
2.7822E2	-14.25E0
2.7867E2	99.554E-2
2.7912E2	-1.0524E0
2.7956E2	-13.568E0
2.8001E2	-17.664E0
2.8046E2	5.7741E0
2.8091E2	-11.747E0
2.8136E2	-22.67E0
2.8181E2	-7.879E0
2.8226E2	-24.263E0
2.8271E2	-33.82E0
2.8315E2	-22.442E0
2.836E2	-22.442E0
2.8405E2	-22.215E0
2.845E2	-27.221E0
2.8495E2	-9.927E0
2.854E2	11.69E0
2.8585E2	-15.616E0
2.8629E2	21.475E0
2.8674E2	-59.732E-2
2.8719E2	10.325E0
2.8764E2	9.1874E0
2.8809E2	-4.0106E0
2.8854E2	-15.388E0
2.8898E2	-16.071E0
2.8943E2	-32.91E0
2.8988E2	-16.071E0
2.9033E2	-12.658E0
2.9078E2	-17.664E0
2.9122E2	-22.67E0
2.9167E2	5.7741E0
2.9212E2	14.421E0
2.9257E2	-10.61E0
2.9302E2	5.319E0
2.9346E2	-10.837E0
2.9391E2	-5.3759E0
2.9436E2	16.014E0
2.9481E2	4.4088E0
2.9526E2	-1.280E0
2.957E2	3.4986E0
2.9615E2	-13.795E0
2.966E2	6.6843E0
2.9705E2	-9.4719E0
2.9749E2	-19.939E0
2.9794E2	-16.526E0
2.9839E2	-11.747E0
2.9884E2	-17.664E0
2.9928E2	-5.831E0
2.9973E2	-14.706E0
3.0018E2	-2.8728E0
3.0063E2	8.5332E-2
3.0107E2	-14.25E0
3.0152E2	-12.658E0
3.0197E2	10.325E0
3.0242E2	-8.5616E0
3.0286E2	10.78E0
3.0331E2	-4.2382E0
3.0376E2	9.6425E0
3.0421E2	21.02E0
3.0465E2	2.1333E0
3.051E2	-5.6035E0
3.0555E2	-6.9688E0
3.0599E2	-36.977E-2
3.0644E2	-7.1963E0
3.0689E2	-12.658E0
3.0734E2	21.248E0
3.0778E2	13.056E0
3.0823E2	14.876E0
3.0868E2	3.2711E0
3.0912E2	11.69E0
3.0957E2	-11.52E0
3.1002E2	-3.1004E0
3.1046E2	-14.706E0
3.1091E2	-5.3759E0
3.1136E2	33.08E0
3.118E2	35.356E0
3.1225E2	3.0435E0
3.127E2	8.5332E-2
3.1314E2	-12.43E0
3.1359E2	14.876E0
3.1404E2	8.5332E-2
3.1448E2	-19.029E0
3.1493E2	-14.023E0
3.1538E2	76.799E-2
3.1582E2	33.08E0
3.1627E2	-2.4177E0
3.1672E2	11.235E0
3.1716E2	6.2292E0
3.1761E2	-4.2382E0
3.1805E2	6.9119E0
3.185E2	3.7262E0
3.1895E2	12.601E0
3.1939E2	-26.993E0
3.1984E2	5.5466E0
3.2029E2	6.4568E0
3.2073E2	-13.795E0
3.2118E2	-12.885E0
3.2162E2	-11.747E0
3.2207E2	18.062E0
3.2252E2	1.4506E0
3.2296E2	10.78E0
3.2341E2	-8.3341E0
3.2385E2	-6.0586E0
3.243E2	-10.382E0
3.2474E2	-4.9208E0
3.2519E2	12.373E0
3.2564E2	14.194E0
3.2608E2	-82.488E-2
3.2653E2	10.325E0
3.2697E2	76.799E-2
3.2742E2	17.379E0
3.2786E2	14.194E0
3.2831E2	7.8221E0
3.2876E2	18.289E0
3.292E2	20.793E0
3.2965E2	-12.202E0
3.3009E2	-12.658E0
3.3054E2	3.4986E0
3.3098E2	5.7741E0
3.3143E2	4.4088E0
3.3187E2	-4.4657E0
3.3232E2	7.1394E0
3.3276E2	1.9057E0
3.3321E2	12.146E0
3.3365E2	1.2231E0
3.341E2	-2.8728E0
3.3454E2	-59.732E-2
3.3499E2	20.337E0
3.3543E2	3.9537E0
3.3588E2	-2.6453E0
3.3632E2	15.331E0
3.3677E2	13.283E0
3.3721E2	16.242E0
3.3766E2	8.0497E0
3.381E2	5.7741E0
3.3855E2	76.799E-2
3.3899E2	9.8701E0
3.3944E2	14.194E0
3.3988E2	-10.61E0
3.4033E2	-7.879E0
3.4077E2	-5.1484E0
3.4122E2	6.6843E0
3.4166E2	-13.795E0
3.4211E2	36.721E0
3.4255E2	24.661E0
3.430E2	6.0017E0
3.4344E2	18.745E0
3.4388E2	21.248E0
3.4433E2	17.834E0
3.4477E2	11.235E0
3.4522E2	30.577E0
3.4566E2	-6.2861E0
3.4611E2	10.553E0
3.4655E2	3.9537E0
3.470E2	2.5884E0
3.4744E2	-7.1963E0
3.4788E2	-8.3341E0
3.4833E2	10.78E0
3.4877E2	20.565E0
3.4922E2	8.7323E0
3.4966E2	18.062E0
3.501E2	24.206E0
3.5055E2	2.816E0
3.5099E2	17.379E0
3.5144E2	27.392E0
3.5188E2	21.475E0
3.5232E2	5.7741E0
3.5277E2	18.062E0
3.5321E2	11.463E0
3.5365E2	38.997E0
3.541E2	20.11E0
3.5454E2	24.206E0
3.5499E2	14.194E0
3.5543E2	76.799E-2
3.5587E2	44.23E0
3.5632E2	28.302E0
3.5676E2	-2.6453E0
3.572E2	15.104E0
3.5765E2	9.8701E0
3.5809E2	-36.977E-2
3.5853E2	26.709E0
3.5898E2	17.834E0
3.5942E2	8.5048E0
3.5986E2	21.475E0
3.6031E2	12.146E0
3.6075E2	10.78E0
3.6119E2	27.847E0
3.6164E2	33.308E0
3.6208E2	43.093E0
3.6252E2	11.918E0
3.6297E2	6.6843E0
3.6341E2	23.978E0
3.6385E2	15.104E0
3.6429E2	36.039E0
3.6474E2	11.235E0
3.6518E2	30.35E0
3.6562E2	21.02E0
3.6607E2	19.655E0
3.6651E2	26.709E0
3.6695E2	29.44E0
3.6739E2	29.212E0
3.6784E2	25.344E0
3.6828E2	48.554E0
3.6872E2	22.385E0
3.6916E2	46.278E0
3.6961E2	59.021E0
3.7005E2	48.554E0
3.7049E2	27.392E0
3.7093E2	47.871E0
3.7138E2	47.871E0
3.7182E2	57.201E0
3.7226E2	28.302E0
3.727E2	29.667E0
3.7315E2	38.314E0
3.7359E2	45.368E0
3.7403E2	40.362E0
3.7447E2	62.435E0
3.7492E2	77.908E0
3.7536E2	47.871E0
3.758E2	28.302E0
3.7624E2	71.992E0
3.7668E2	42.41E0
3.7713E2	52.195E0
3.7757E2	46.278E0
3.7801E2	55.153E0
3.7845E2	64.483E0
3.7889E2	41.50E0
3.7934E2	69.261E0
3.7978E2	44.913E0
3.8022E2	50.602E0
3.8066E2	70.399E0
3.811E2	74.495E0
3.8154E2	57.884E0
3.8199E2	78.363E0
3.8243E2	62.662E0
3.8287E2	53.788E0
3.8331E2	59.932E0
3.8375E2	30.35E0
3.8419E2	53.105E0
3.8463E2	66.531E0
3.8508E2	64.255E0
3.8552E2	52.877E0
3.8596E2	83.142E0
3.864E2	65.62E0
3.8684E2	60.614E0
3.8728E2	54.47E0
3.8772E2	55.608E0
3.8816E2	71.082E0
3.8861E2	73.585E0
3.8905E2	70.399E0
3.8949E2	71.309E0
3.8993E2	48.554E0
3.9037E2	51.967E0
3.9081E2	68.123E0
3.9125E2	89.058E0
3.9169E2	73.13E0
3.9213E2	74.722E0
3.9257E2	1.0385E2
3.9301E2	72.447E0
3.9346E2	90.651E0
3.939E2	1.0066E2
3.9434E2	99.981E0
3.9478E2	95.43E0
3.9522E2	83.824E0
3.9566E2	99.526E0
3.961E2	88.376E0
3.9654E2	1.1068E2
3.9698E2	1.4981E2
3.9742E2	1.0339E2
3.9786E2	1.1386E2
3.983E2	1.109E2
3.9874E2	1.2023E2
3.9918E2	1.2342E2
3.9962E2	1.2274E2
4.0006E2	1.3957E2
4.005E2	1.3616E2
4.0094E2	1.332E2
4.0138E2	1.4253E2
4.0182E2	1.6802E2
4.0226E2	1.7007E2
4.027E2	1.7507E2
4.0314E2	2.0488E2
4.0358E2	1.935E2
4.0402E2	2.133E2
4.0446E2	2.0989E2
4.049E2	2.4857E2
4.0534E2	2.4903E2
4.0578E2	2.6314E2
4.0622E2	3.2071E2
4.0666E2	3.2822E2
4.071E2	3.4983E2
4.0754E2	3.8146E2
4.0798E2	4.0035E2
4.0842E2	4.5064E2
4.0886E2	4.7931E2
4.093E2	5.0229E2
4.0974E2	5.4485E2
4.1018E2	5.9764E2
4.1062E2	6.4724E2
4.1106E2	7.0937E2
4.115E2	7.3895E2
4.1194E2	8.1176E2
4.1237E2	8.8299E2
4.1281E2	9.6195E2
4.1325E2	10.475E2
4.1369E2	11.071E2
4.1413E2	11.936E2
4.1457E2	13.012E2
4.1501E2	14.18E2
4.1545E2	15.766E2
4.1589E2	16.382E2
4.1633E2	17.839E2
4.1676E2	19.302E2
4.172E2	21.024E2
4.1764E2	22.984E2
4.1808E2	24.761E2
4.1852E2	26.563E2
4.1896E2	29.034E2
4.194E2	30.698E2
4.1984E2	33.77E2
4.2027E2	36.259E2
4.2071E2	39.70E2
4.2115E2	42.155E2
4.2159E2	46.205E2
4.2203E2	49.129E2
4.2247E2	53.289E2
4.2291E2	57.776E2
4.2334E2	63.356E2
4.2378E2	67.238E2
4.2422E2	73.648E2
4.2466E2	80.852E2
4.251E2	85.945E2
4.2554E2	91.916E2
4.2597E2	99.241E2
4.2641E2	1.0927E4
4.2685E2	1.1773E4
4.2729E2	1.2726E4
4.2773E2	1.3823E4
4.2816E2	1.5132E4
4.286E2	1.6084E4
4.2904E2	1.7803E4
4.2948E2	1.9234E4
4.2991E2	2.1011E4
4.3035E2	2.2929E4
4.3079E2	2.4991E4
4.3123E2	2.7007E4
4.3167E2	2.8947E4
4.321E2	3.137E4
4.3254E2	3.3367E4
4.3298E2	3.6397E4
4.3342E2	3.891E4
4.3385E2	4.1601E4
4.3429E2	4.4012E4
4.3473E2	4.6519E4
4.3517E2	4.9219E4
4.356E2	5.1538E4
4.3604E2	5.4162E4
4.3648E2	5.5594E4
4.3692E2	5.6913E4
4.3735E2	5.7954E4
4.3779E2	5.9315E4
4.3823E2	6.0134E4
4.3866E2	6.061E4
4.391E2	6.2117E4
4.3954E2	6.1984E4
4.3997E2	6.3001E4
4.4041E2	6.2706E4
4.4085E2	6.2869E4
4.4129E2	6.3193E4
4.4172E2	6.2956E4
4.4216E2	6.2906E4
4.426E2	6.2314E4
4.4303E2	6.1904E4
4.4347E2	6.1877E4
4.4391E2	6.1691E4
4.4434E2	6.0444E4
4.4478E2	6.0126E4
4.4522E2	5.9612E4
4.4565E2	5.8272E4
4.4609E2	5.6669E4
4.4653E2	5.5783E4
4.4696E2	5.4544E4
4.474E2	5.3392E4
4.4783E2	5.1658E4
4.4827E2	4.9494E4
4.4871E2	4.846E4
4.4914E2	4.6311E4
4.4958E2	4.4731E4
4.5002E2	4.2828E4
4.5045E2	4.0769E4
4.5089E2	3.8955E4
4.5132E2	3.7193E4
4.5176E2	3.6112E4
4.522E2	3.4858E4
4.5263E2	3.3516E4
4.5307E2	3.2289E4
4.535E2	3.125E4
4.5394E2	3.0065E4
4.5437E2	2.9158E4
4.5481E2	2.846E4
4.5525E2	2.6858E4
4.5568E2	2.6599E4
4.5612E2	2.5872E4
4.5655E2	2.5034E4
4.5699E2	2.4297E4
4.5742E2	2.314E4
4.5786E2	2.2642E4
4.5829E2	2.1714E4
4.5873E2	2.1108E4
4.5917E2	2.0307E4
4.596E2	1.9581E4
4.6004E2	1.8732E4
4.6047E2	1.8205E4
4.6091E2	1.757E4
4.6134E2	1.6676E4
4.6178E2	1.6095E4
4.6221E2	1.5428E4
4.6265E2	1.473E4
4.6308E2	1.4061E4
4.6352E2	1.3556E4
4.6395E2	1.2815E4
4.6439E2	1.2282E4
4.6482E2	1.1879E4
4.6526E2	1.1247E4
4.6569E2	1.0666E4
4.6613E2	1.0283E4
4.6656E2	97.327E2
4.670E2	93.666E2
4.6743E2	88.996E2
4.6787E2	85.708E2
4.683E2	81.626E2
4.6873E2	78.013E2
4.6917E2	75.776E2
4.696E2	73.589E2
4.7004E2	71.159E2
4.7047E2	67.964E2
4.7091E2	65.802E2
4.7134E2	63.231E2
4.7177E2	61.347E2
4.7221E2	59.406E2
4.7264E2	57.961E2
4.7308E2	55.56E2
4.7351E2	52.982E2
4.7395E2	52.422E2
4.7438E2	50.329E2
4.7481E2	48.101E2
4.7525E2	46.788E2
4.7568E2	43.429E2
4.7612E2	42.228E2
4.7655E2	40.109E2
4.7698E2	38.955E2
4.7742E2	38.079E2
4.7785E2	36.612E2
4.7828E2	34.928E2
4.7872E2	32.409E2
4.7915E2	30.987E2
4.7959E2	29.819E2
4.8002E2	29.114E2
4.8045E2	27.553E2
4.8089E2	26.219E2
4.8132E2	24.836E2
4.8175E2	23.987E2
4.8219E2	23.227E2
4.8262E2	21.819E2
4.8305E2	21.179E2
4.8349E2	20.337E2
4.8392E2	19.548E2
4.8435E2	18.56E2
4.8479E2	18.109E2
4.8522E2	17.035E2
4.8565E2	16.273E2
4.8608E2	15.538E2
4.8652E2	15.276E2
4.8695E2	14.739E2
4.8738E2	14.191E2
4.8782E2	13.797E2
4.8825E2	13.281E2
4.8868E2	13.012E2
4.8911E2	12.594E2
4.8955E2	12.195E2
4.8998E2	11.831E2
4.9041E2	11.834E2
4.9084E2	11.162E2
4.9128E2	11.178E2
4.9171E2	10.691E2
4.9214E2	10.213E2
4.9257E2	10.307E2
4.9301E2	9.7287E2
4.9344E2	9.8652E2
4.9387E2	9.5467E2
4.943E2	9.3737E2
4.9474E2	9.1894E2
4.9517E2	8.7389E2
4.956E2	8.7798E2
4.9603E2	8.3384E2
4.9647E2	7.9447E2
4.969E2	7.8013E2
4.9733E2	7.3121E2
4.9776E2	7.2234E2
4.9819E2	7.2347E2
4.9862E2	7.1164E2
4.9906E2	6.9002E2
4.9949E2	6.6363E2
4.9992E2	6.5407E2
5.0035E2	6.4542E2
5.0078E2	6.147E2
5.0122E2	6.279E2
5.0165E2	5.9377E2
5.0208E2	5.8148E2
5.0251E2	5.6487E2
5.0294E2	5.6328E2
5.0337E2	5.4985E2
5.038E2	5.3552E2
5.0424E2	5.3938E2
5.0467E2	5.4644E2
5.051E2	5.2277E2
5.0553E2	5.1731E2
5.0596E2	5.3142E2
5.0639E2	5.0138E2
5.0682E2	4.9592E2
5.0725E2	5.1208E2
5.0769E2	4.9274E2
5.0812E2	4.7385E2
5.0855E2	4.7521E2
5.0898E2	4.4518E2
5.0941E2	4.5269E2
5.0984E2	4.6657E2
5.1027E2	4.4586E2
5.107E2	4.297E2
5.1113E2	4.3016E2
5.1156E2	4.4791E2
5.1199E2	4.024E2
5.1242E2	4.1719E2
5.1285E2	4.2584E2
5.1329E2	4.1878E2
5.1372E2	4.3334E2
5.1415E2	4.0627E2
5.1458E2	4.1855E2
5.1501E2	3.9466E2
5.1544E2	3.9011E2
5.1587E2	4.1332E2
5.163E2	4.1514E2
5.1673E2	4.0672E2
5.1716E2	3.8124E2
5.1759E2	4.0558E2
5.1802E2	4.0262E2
5.1845E2	3.644E2
5.1888E2	3.7304E2
5.1931E2	3.7213E2
5.1974E2	3.9193E2
5.2017E2	3.7486E2
5.206E2	3.5234E2
5.2103E2	3.6326E2
5.2146E2	3.7236E2
5.2189E2	3.6121E2
5.2232E2	3.7577E2
5.2275E2	3.5052E2
5.2318E2	3.6804E2
5.2361E2	3.4983E2
5.2404E2	3.7691E2
5.2447E2	3.5848E2
5.2489E2	3.7782E2
5.2532E2	3.826E2
5.2575E2	3.4028E2
5.2618E2	3.4528E2
5.2661E2	3.7009E2
5.2704E2	3.6212E2
5.2747E2	3.710E2
5.279E2	3.2412E2
5.2833E2	3.3937E2
5.2876E2	3.7828E2
5.2919E2	3.785E2
5.2962E2	3.4232E2
5.3004E2	3.6417E2
5.3047E2	3.6622E2
5.309E2	3.801E2
5.3133E2	3.5393E2
5.3176E2	3.6212E2
5.3219E2	3.7668E2
5.3262E2	3.6258E2
5.3305E2	3.6417E2
5.3348E2	3.5848E2
5.339E2	3.5006E2
5.3433E2	3.5802E2
5.3476E2	3.628E2
5.3519E2	3.6189E2
5.3562E2	3.562E2
5.3605E2	3.7486E2
5.3647E2	3.7555E2
5.369E2	4.0399E2
5.3733E2	3.4323E2
5.3776E2	3.8533E2
5.3819E2	3.6576E2
5.3862E2	3.7282E2
5.3904E2	3.6667E2
5.3947E2	3.6826E2
5.399E2	3.7577E2
5.4033E2	3.7509E2
5.4076E2	3.5416E2
5.4118E2	3.735E2
5.4161E2	3.8192E2
5.4204E2	3.5757E2
5.4247E2	3.5825E2
5.4289E2	3.5325E2
5.4332E2	3.6849E2
5.4375E2	3.8055E2
5.4418E2	3.6553E2
5.4461E2	3.7077E2
5.4503E2	3.6758E2
5.4546E2	3.694E2
5.4589E2	3.8806E2
5.4632E2	3.8761E2
5.4674E2	3.8124E2
5.4717E2	3.983E2
5.476E2	3.801E2
5.4802E2	3.8533E2
5.4845E2	3.9466E2
5.4888E2	3.9307E2
5.4931E2	3.9193E2
5.4973E2	3.9944E2
5.5016E2	3.8601E2
5.5059E2	3.9421E2
5.5101E2	3.8442E2
5.5144E2	3.8738E2
5.5187E2	4.140E2
5.5229E2	3.8783E2
5.5272E2	3.8419E2
5.5315E2	3.8533E2
5.5357E2	3.8692E2
5.540E2	4.0854E2
5.5443E2	4.2879E2
5.5485E2	3.8328E2
5.5528E2	4.2493E2
5.5571E2	3.9921E2
5.5613E2	4.1036E2
5.5656E2	4.0354E2
5.5699E2	3.9557E2
5.5741E2	3.8988E2
5.5784E2	3.9694E2
5.5827E2	3.7623E2
5.5869E2	3.8647E2
5.5912E2	3.7805E2
5.5954E2	4.1514E2
5.5997E2	3.9034E2
5.604E2	3.851E2
5.6082E2	4.008E2
5.6125E2	3.9125E2
5.6167E2	3.9193E2
5.621E2	3.9011E2
5.6253E2	3.8874E2
5.6295E2	3.7941E2
5.6338E2	3.7919E2
5.638E2	3.9443E2
5.6423E2	3.7077E2
5.6465E2	3.7418E2
5.6508E2	3.9512E2
5.6551E2	3.7373E2
5.6593E2	3.5985E2
5.6636E2	3.8738E2
5.6678E2	3.7122E2
5.6721E2	3.669E2
5.6763E2	3.7873E2
5.6806E2	3.7282E2
5.6848E2	3.8692E2
5.6891E2	3.9079E2
5.6933E2	3.6644E2
5.6976E2	3.6303E2
5.7018E2	3.7828E2
5.7061E2	3.5689E2
5.7103E2	3.8897E2
5.7146E2	3.8124E2
5.7188E2	3.6735E2
5.7231E2	3.8761E2
5.7273E2	3.6417E2
5.7316E2	3.6531E2
5.7358E2	3.6667E2
5.7401E2	3.6508E2
5.7443E2	3.8055E2
5.7486E2	3.9398E2
5.7528E2	3.5188E2
5.7571E2	3.7259E2
5.7613E2	3.6121E2
5.7655E2	3.6303E2
5.7698E2	4.1218E2
5.774E2	3.8715E2
5.7783E2	3.8601E2
5.7825E2	3.8647E2
5.7868E2	3.7828E2
5.791E2	3.7236E2
5.7952E2	3.9216E2
5.7995E2	3.8601E2
5.8037E2	3.8374E2
5.808E2	3.6508E2
5.8122E2	4.0399E2
5.8164E2	3.8692E2
5.8207E2	3.6189E2
5.8249E2	3.851E2
5.8291E2	3.6553E2
5.8334E2	3.7577E2
5.8376E2	3.760E2
5.8419E2	3.7532E2
5.8461E2	3.628E2
5.8503E2	3.8442E2
5.8546E2	3.7964E2
5.8588E2	3.8374E2
5.863E2	4.0058E2
5.8673E2	3.7964E2
5.8715E2	3.7919E2
5.8757E2	3.6849E2
5.880E2	3.669E2
5.8842E2	3.5802E2
5.8884E2	3.5734E2
5.8927E2	3.5416E2
5.8969E2	3.5734E2
5.9011E2	3.4164E2
5.9054E2	3.5825E2
5.9096E2	3.5939E2
5.9138E2	3.6781E2
5.918E2	3.4369E2
5.9223E2	3.4778E2
5.9265E2	3.4915E2
5.9307E2	3.628E2
5.9349E2	3.3823E2
5.9392E2	3.7373E2
5.9434E2	3.5598E2
5.9476E2	3.6531E2
5.9519E2	3.5871E2
5.9561E2	3.4801E2
5.9603E2	3.628E2
5.9645E2	3.5325E2
5.9687E2	3.6872E2
5.973E2	3.644E2
5.9772E2	3.487E2
5.9814E2	3.8283E2
5.9856E2	3.6917E2
5.9899E2	3.7759E2
5.9941E2	3.4528E2
5.9983E2	3.4733E2
6.0025E2	3.6007E2
6.0067E2	3.6508E2
6.011E2	3.4915E2
6.0152E2	3.6394E2
6.0194E2	3.5165E2
6.0236E2	3.4278E2
6.0278E2	3.6553E2
6.032E2	3.735E2
6.0363E2	3.3914E2
6.0405E2	3.5143E2
6.0447E2	3.3641E2
6.0489E2	3.3686E2
6.0531E2	3.3641E2
6.0573E2	3.3095E2
6.0615E2	3.2275E2
6.0658E2	3.2799E2
6.070E2	3.248E2
6.0742E2	3.0478E2
6.0784E2	3.339E2
6.0826E2	3.2412E2
6.0868E2	3.1274E2
6.091E2	3.2116E2
6.0952E2	3.1047E2
6.0995E2	3.066E2
6.1037E2	2.9932E2
6.1079E2	3.1502E2
6.1121E2	3.1342E2
6.1163E2	2.934E2
6.1205E2	2.9272E2
6.1247E2	2.8953E2
6.1289E2	3.0159E2
6.1331E2	2.6564E2
6.1373E2	3.0114E2
6.1415E2	3.1115E2
6.1457E2	2.579E2
6.1499E2	2.6609E2
6.1541E2	2.5927E2
6.1583E2	2.5904E2
6.1625E2	2.579E2
6.1667E2	2.5312E2
6.1709E2	2.3651E2
6.1751E2	2.4766E2
6.1794E2	2.4334E2
6.1836E2	2.5904E2
6.1878E2	2.447E2
6.192E2	2.5085E2
6.1962E2	2.4925E2
6.2003E2	2.4015E2
6.2045E2	2.3264E2
6.2087E2	2.5085E2
6.2129E2	2.3856E2
6.2171E2	2.2036E2
6.2213E2	2.3879E2
6.2255E2	2.1421E2
6.2297E2	2.2673E2
6.2339E2	2.3765E2
6.2381E2	2.1103E2
6.2423E2	2.3424E2
6.2465E2	2.2309E2
6.2507E2	2.2582E2
6.2549E2	2.2445E2
6.2591E2	2.133E2
6.2633E2	2.0693E2
6.2675E2	1.8964E2
6.2717E2	2.001E2
6.2759E2	2.0374E2
6.280E2	1.885E2
6.2842E2	1.8213E2
6.2884E2	1.9055E2
6.2926E2	1.7621E2
6.2968E2	2.0807E2
6.301E2	1.885E2
6.3052E2	1.8008E2
6.3094E2	1.5391E2
6.3135E2	1.6643E2
6.3177E2	1.885E2
6.3219E2	1.6734E2
6.3261E2	1.8554E2
6.3303E2	1.8804E2
6.3345E2	1.7644E2
6.3387E2	1.819E2
6.3428E2	1.7462E2
6.347E2	1.6256E2
6.3512E2	1.8281E2
6.3554E2	1.6483E2
6.3596E2	1.4048E2
6.3638E2	1.4822E2
6.3679E2	1.7371E2
6.3721E2	1.4663E2
6.3763E2	1.5778E2
6.3805E2	1.5482E2
6.3847E2	1.6005E2
6.3888E2	1.4822E2
6.393E2	1.348E2
6.3972E2	1.3866E2
6.4014E2	1.4185E2
6.4055E2	1.5528E2
6.4097E2	1.4868E2
6.4139E2	1.2797E2
6.4181E2	1.3275E2
6.4222E2	1.1796E2
6.4264E2	1.3525E2
6.4306E2	1.2524E2
6.4348E2	1.3389E2
6.4389E2	1.3844E2
6.4431E2	1.373E2
6.4473E2	1.150E2
6.4515E2	1.043E2
6.4556E2	1.2842E2
6.4598E2	1.1887E2
6.464E2	1.0977E2
6.4681E2	1.2842E2
6.4723E2	1.2501E2
6.4765E2	1.043E2
6.4806E2	1.0954E2
6.4848E2	88.376E0
6.489E2	92.699E0
6.4931E2	1.0271E2
6.4973E2	1.0112E2
6.5015E2	97.933E0
6.5056E2	99.298E0
6.5098E2	1.1978E2
6.514E2	1.0066E2
6.5181E2	1.0863E2
6.5223E2	73.13E0
6.5265E2	1.0544E2
6.5306E2	85.417E0
6.5348E2	89.741E0
6.5389E2	92.927E0
6.5431E2	88.376E0
6.5473E2	81.321E0
6.5514E2	51.512E0
6.5556E2	88.376E0
6.5597E2	69.944E0
6.5639E2	74.267E0
6.5681E2	87.693E0
6.5722E2	60.842E0
6.5764E2	71.309E0
6.5805E2	1.0089E2
6.5847E2	56.063E0
6.5889E2	66.986E0
6.593E2	67.441E0
6.5972E2	74.722E0
6.6013E2	55.608E0
6.6055E2	50.374E0
6.6096E2	62.207E0
6.6138E2	70.399E0
6.6179E2	64.938E0
6.6221E2	66.075E0
6.6262E2	69.716E0
6.6304E2	51.74E0
6.6345E2	51.285E0
6.6387E2	35.583E0
6.6428E2	60.842E0
6.647E2	59.932E0
6.6511E2	57.201E0
6.6553E2	27.392E0
6.6594E2	43.093E0
6.6636E2	21.02E0
6.6677E2	19.655E0
6.6719E2	54.925E0
6.676E2	46.278E0
6.6802E2	23.978E0
6.6843E2	42.41E0
6.6885E2	51.512E0
6.6926E2	33.308E0
6.6967E2	48.554E0
6.7009E2	22.385E0
6.705E2	53.788E0
6.7092E2	36.266E0
6.7133E2	44.686E0
6.7175E2	40.134E0
6.7216E2	43.093E0
6.7257E2	32.17E0
6.7299E2	25.571E0
6.734E2	43.548E0
6.7382E2	26.026E0
6.7423E2	37.631E0
6.7464E2	31.715E0
6.7506E2	37.859E0
6.7547E2	25.344E0
6.7588E2	28.302E0
6.763E2	19.882E0
6.7671E2	16.242E0
6.7713E2	15.786E0
6.7754E2	55.608E0
6.7795E2	14.421E0
6.7837E2	11.69E0
6.7878E2	25.799E0
6.7919E2	42.865E0
6.7961E2	10.553E0
6.8002E2	16.014E0
6.8043E2	21.703E0
6.8085E2	39.907E0
6.8126E2	30.35E0
6.8167E2	29.212E0
6.8208E2	16.242E0
6.825E2	33.763E0
6.8291E2	11.918E0
6.8332E2	2.816E0
6.8374E2	37.404E0
6.8415E2	21.475E0
6.8456E2	11.918E0
6.8497E2	21.703E0
6.8539E2	18.972E0
6.858E2	10.78E0
6.8621E2	14.421E0
6.8662E2	13.738E0
6.8704E2	3.2711E0
6.8745E2	19.882E0
6.8786E2	15.559E0
6.8827E2	41.727E0
6.8869E2	6.4568E0
6.891E2	26.481E0
6.8951E2	-19.029E0
6.8992E2	27.619E0
6.9033E2	3.7262E0
6.9075E2	14.421E0
6.9116E2	27.392E0
6.9157E2	9.8701E0
6.9198E2	-36.977E-2
6.9239E2	13.511E0
6.928E2	21.703E0
6.9322E2	21.93E0
6.9363E2	12.828E0
6.9404E2	-4.9208E0
6.9445E2	1.2231E0
6.9486E2	6.0017E0
6.9527E2	20.11E0
6.9568E2	2.3609E0
6.961E2	8.5332E-2
6.9651E2	-10.382E0
6.9692E2	-36.977E-2
6.9733E2	6.4568E0
6.9774E2	11.463E0
6.9815E2	-1.0524E0
6.9856E2	-2.8728E0
6.9897E2	2.5884E0
6.9939E2	3.2711E0
6.998E2	1.2231E0
7.0021E2	26.936E0
7.0062E2	3.4986E0
7.0103E2	15.786E0
7.0144E2	-1.0524E0
7.0185E2	-2.4177E0
7.0226E2	9.8701E0
7.0267E2	76.799E-2
7.0308E2	31.288E-2
7.0349E2	14.421E0
7.039E2	9.8701E0
7.0431E2	3.7262E0
7.0472E2	-16.754E0
7.0513E2	-15.616E0
7.0554E2	-9.927E0
7.0595E2	-5.1484E0
7.0636E2	-11.292E0
7.0677E2	-11.747E0
7.0718E2	-8.3341E0
7.0759E2	16.242E0
7.080E2	6.6843E0
7.0841E2	12.828E0
7.0882E2	11.918E0
7.0923E2	5.319E0
7.0964E2	31.288E-2
7.1005E2	4.4088E0
7.1046E2	-6.5137E0
7.1087E2	11.235E0
7.1128E2	7.1394E0
7.1169E2	-1.0524E0
7.121E2	-5.6035E0
7.1251E2	-11.292E0
7.1292E2	16.469E0
7.1333E2	-25.401E0
7.1374E2	-7.6514E0
7.1415E2	10.325E0
7.1455E2	-11.292E0
7.1496E2	28.529E0
7.1537E2	-4.9208E0
7.1578E2	-12.885E0
7.1619E2	5.5466E0
7.166E2	-36.977E-2
7.1701E2	-16.298E0
7.1742E2	-8.1065E0
7.1783E2	-6.2861E0
7.1823E2	-1.9626E0
7.1864E2	10.78E0
7.1905E2	-22.215E0
7.1946E2	-16.526E0
7.1987E2	-6.2861E0
7.2028E2	-14.933E0
7.2069E2	2.5884E0
7.2109E2	-82.488E-2
7.215E2	-25.401E0
7.2191E2	4.6364E0
7.2232E2	-2.6453E0
7.2273E2	-14.25E0
7.2313E2	-1.9626E0
7.2354E2	-18.574E0
7.2395E2	-18.574E0
7.2436E2	-8.5616E0
7.2477E2	-14.706E0
7.2517E2	-21.305E0
7.2558E2	-15.616E0
7.2599E2	-9.2443E0
7.264E2	-3.1004E0
7.268E2	-7.1963E0
7.2721E2	18.745E0
7.2762E2	-16.298E0
7.2803E2	-14.706E0
7.2843E2	-10.155E0
7.2884E2	-13.34E0
7.2925E2	8.2772E0
7.2966E2	-3.1004E0
7.3006E2	-12.202E0
7.3047E2	-8.1065E0
7.3088E2	-11.975E0
7.3129E2	-10.155E0
7.3169E2	-47.246E0
7.321E2	-2.1902E0
7.3251E2	-33.592E0
7.3291E2	-12.43E0
7.3332E2	-19.257E0
7.3373E2	-20.849E0
7.3413E2	-11.52E0
7.3454E2	-23.58E0
7.3495E2	-27.676E0
7.3535E2	-1.5075E0
7.3576E2	-19.257E0
7.3617E2	-12.43E0
7.3657E2	-24.718E0
7.3698E2	-28.131E0
7.3738E2	-6.7412E0
7.3779E2	8.9599E0
7.382E2	-2.6453E0
7.386E2	-4.6933E0
7.3901E2	-6.0586E0
7.3942E2	-1.0524E0
7.3982E2	-14.933E0
7.4023E2	-9.4719E0
7.4063E2	-7.879E0
7.4104E2	-7.1963E0
7.4145E2	-30.407E0
7.4185E2	-15.161E0
7.4226E2	-4.0106E0
7.4266E2	-22.215E0
7.4307E2	-28.131E0
7.4347E2	-18.801E0
7.4388E2	-13.34E0
7.4428E2	-16.298E0
7.4469E2	-1.7351E0
7.4509E2	-6.0586E0
7.455E2	-14.933E0
7.4591E2	20.337E0
7.4631E2	-13.795E0
7.4672E2	-4.9208E0
7.4712E2	12.828E0
7.4753E2	-15.388E0
7.4793E2	-27.221E0
7.4834E2	-19.712E0
7.4874E2	-16.981E0
7.4915E2	-2.6453E0
7.4955E2	-22.67E0
7.4995E2	-14.706E0
7.5036E2	-45.88E0
7.5076E2	-17.891E0
7.5117E2	-1.5075E0
7.5157E2	-20.167E0
7.5198E2	-16.981E0
7.5238E2	-19.484E0
7.5279E2	-1.0524E0
7.5319E2	-8.5616E0
7.5359E2	-26.538E0
7.540E2	-19.712E0
7.544E2	-30.407E0
7.5481E2	-35.413E0
7.5521E2	-22.215E0
7.5562E2	-24.945E0
7.5602E2	-12.885E0
7.5642E2	-14.706E0
7.5683E2	-27.676E0
7.5723E2	-1.7351E0
7.5763E2	-19.257E0
7.5804E2	-21.532E0
7.5844E2	-8.7892E0
7.5885E2	-13.34E0
7.5925E2	-7.1963E0
7.5965E2	-29.724E0
7.6006E2	-24.945E0
7.6046E2	-43.377E0
7.6086E2	-2.8728E0
7.6127E2	-3.3279E0
7.6167E2	-16.526E0
7.6207E2	-31.544E0
7.6248E2	-9.927E0
7.6288E2	-16.298E0
7.6328E2	-27.676E0
7.6368E2	-13.113E0
7.6409E2	-6.9688E0
7.6449E2	-34.275E0
7.6489E2	-34.275E0
7.653E2	-12.658E0
7.657E2	-15.388E0
7.661E2	-12.658E0
7.665E2	-9.927E0
7.6691E2	-2.8728E0
7.6731E2	-9.0168E0
7.6771E2	-16.298E0
7.6811E2	-7.1963E0
7.6852E2	-34.958E0
7.6892E2	-32.227E0
7.6932E2	-25.401E0
7.6972E2	-27.448E0
7.7012E2	-22.67E0
7.7053E2	-20.849E0
7.7093E2	-11.065E0
7.7133E2	-19.939E0
7.7173E2	-14.25E0
7.7213E2	-28.814E0
7.7254E2	-17.436E0
7.7294E2	8.7323E0
7.7334E2	-17.664E0
7.7374E2	-30.179E0
7.7414E2	-26.993E0
7.7454E2	-21.987E0
7.7495E2	-25.856E0
7.7535E2	-26.311E0
7.7575E2	-13.113E0
7.7615E2	-11.52E0
7.7655E2	-13.113E0
7.7695E2	5.0915E0
7.7735E2	-12.885E0
7.7775E2	-12.658E0
7.7816E2	-8.1065E0
7.7856E2	-26.538E0
7.7896E2	-8.7892E0
7.7936E2	-28.586E0
7.7976E2	-21.532E0
7.8016E2	-18.801E0
7.8056E2	-10.155E0
7.8096E2	-18.119E0
7.8136E2	-21.76E0
7.8176E2	-11.975E0
7.8216E2	-11.52E0
7.8256E2	-21.305E0
7.8296E2	-12.202E0
7.8337E2	-1.280E0
7.8377E2	-12.658E0
7.8417E2	-13.568E0
7.8457E2	-24.035E0
7.8497E2	-19.939E0
7.8537E2	-1.9626E0
7.8577E2	-15.161E0
7.8617E2	-17.891E0
7.8657E2	-3.7831E0
7.8697E2	-12.43E0
7.8737E2	-5.1484E0
7.8777E2	-30.634E0
7.8817E2	-36.551E0
7.8857E2	-20.167E0
7.8896E2	-24.718E0
7.8936E2	-10.837E0
7.8976E2	-13.795E0
7.9016E2	-22.215E0
7.9056E2	-13.795E0
7.9096E2	-16.981E0
7.9136E2	-27.904E0
7.9176E2	-31.089E0
7.9216E2	-19.484E0
7.9256E2	-11.065E0
7.9296E2	-1.5075E0
7.9336E2	-28.131E0
7.9376E2	-28.359E0
7.9416E2	-16.754E0
7.9455E2	-31.772E0
7.9495E2	-25.628E0
7.9535E2	-28.359E0
7.9575E2	-20.849E0
7.9615E2	-31.089E0
7.9655E2	-32.682E0
7.9695E2	-19.029E0
7.9734E2	-24.945E0
7.9774E2	-37.916E0
7.9814E2	-19.712E0
7.9854E2	-7.1963E0
7.9894E2	-11.975E0
7.9934E2	-13.795E0
7.9973E2	-24.035E0
8.0013E2	-29.269E0
8.0053E2	-17.436E0
8.0093E2	-23.125E0
8.0133E2	-12.658E0
8.0172E2	-19.257E0
8.0212E2	-3.7831E0
8.0252E2	-13.34E0
8.0292E2	-19.712E0
8.0332E2	-19.484E0
8.0371E2	-22.67E0
8.0411E2	-32.455E0
8.0451E2	-9.4719E0
8.0491E2	-21.077E0
8.053E2	-17.891E0
8.057E2	-6.0586E0
8.061E2	-5.3759E0
8.065E2	-43.15E0
8.0689E2	-1.7351E0
8.0729E2	-27.448E0
8.0769E2	-24.945E0
8.0808E2	-9.6994E0
8.0848E2	-4.2382E0
8.0888E2	-15.388E0
8.0928E2	-11.52E0
8.0967E2	-24.718E0
8.1007E2	-16.071E0
8.1047E2	-42.694E0
8.1086E2	-42.467E0
8.1126E2	-2.8728E0
8.1166E2	-23.125E0
8.1205E2	-7.6514E0
8.1245E2	-29.724E0
8.1284E2	-16.754E0
8.1324E2	-14.222E-2
8.1364E2	-17.891E0
8.1403E2	-33.365E0
8.1443E2	-23.808E0
8.1483E2	2.5884E0
8.1522E2	-24.49E0
8.1562E2	-17.891E0
8.1601E2	-16.071E0
8.1641E2	-3.7831E0
8.1681E2	-34.275E0
8.172E2	-19.484E0
8.176E2	-37.233E0
8.1799E2	-42.467E0
8.1839E2	-29.724E0
8.1878E2	-39.736E0
8.1918E2	-1.280E0
8.1957E2	7.1394E0
8.1997E2	-7.4239E0
8.2037E2	-11.065E0
8.2076E2	-3.3279E0
8.2116E2	-7.6514E0
8.2155E2	-16.526E0
8.2195E2	-21.077E0
8.2234E2	-14.478E0
8.2274E2	-19.712E0
8.2313E2	-10.155E0
8.2353E2	-29.041E0
8.2392E2	54.044E-2
8.2432E2	-15.388E0
8.2471E2	-26.083E0
8.2511E2	-20.167E0
8.255E2	-20.849E0
8.2589E2	-24.49E0
8.2629E2	-23.58E0
8.2668E2	-18.801E0
8.2708E2	-35.413E0
8.2747E2	-24.49E0
8.2787E2	-22.67E0
8.2826E2	-19.029E0
8.2866E2	-24.035E0
8.2905E2	-2.4177E0
8.2944E2	-6.9688E0
8.2984E2	-16.754E0
8.3023E2	-21.077E0
8.3063E2	-12.202E0
8.3102E2	-35.185E0
8.3141E2	-11.747E0
8.3181E2	-41.557E0
8.322E2	-35.868E0
8.3259E2	6.4568E0
8.3299E2	-28.586E0
8.3338E2	-38.599E0
8.3378E2	-33.365E0
8.3417E2	-16.754E0
8.3456E2	-15.388E0
8.3496E2	-11.065E0
8.3535E2	-16.298E0
8.3574E2	-11.747E0
8.3613E2	-44.287E0
8.3653E2	1.6782E0
8.3692E2	-14.478E0
8.3731E2	-6.0586E0
8.3771E2	-11.292E0
8.381E2	-21.532E0
8.3849E2	-12.885E0
8.3889E2	-21.305E0
8.3928E2	-8.5616E0
8.3967E2	-21.077E0
8.4006E2	-24.718E0
8.4046E2	-14.25E0
8.4085E2	-26.538E0
8.4124E2	-9.4719E0
8.4163E2	-38.371E0
8.4203E2	-19.939E0
8.4242E2	-38.599E0
8.4281E2	-13.113E0
8.432E2	-51.569E0
8.4359E2	-13.34E0
8.4399E2	-5.6035E0
8.4438E2	-34.73E0
8.4477E2	-25.401E0
8.4516E2	-14.478E0
8.4555E2	-15.161E0
8.4595E2	-31.089E0
8.4634E2	-24.035E0
8.4673E2	-34.275E0
8.4712E2	-39.964E0
8.4751E2	-24.718E0
8.479E2	-22.442E0
8.4829E2	-26.311E0
8.4869E2	-28.586E0
8.4908E2	-20.167E0
8.4947E2	-20.394E0
8.4986E2	-26.993E0
8.5025E2	-26.993E0
8.5064E2	-10.837E0
8.5103E2	-30.179E0
8.5142E2	-31.544E0
8.5181E2	-29.952E0
8.5221E2	-32.91E0
8.526E2	-31.544E0
8.5299E2	-27.221E0
8.5338E2	-39.509E0
8.5377E2	-5.1484E0
8.5416E2	-45.198E0
8.5455E2	-28.131E0
8.5494E2	-42.694E0
8.5533E2	-4.0106E0
8.5572E2	-11.292E0
8.5611E2	1.2231E0
8.565E2	-11.975E0
8.5689E2	-2.6453E0
8.5728E2	-11.065E0
8.5767E2	-24.263E0
8.5806E2	-27.448E0
8.5845E2	-3.5555E0
8.5884E2	-16.981E0
8.5923E2	-11.52E0
8.5962E2	-11.065E0
8.6001E2	-20.622E0
8.604E2	-33.82E0
8.6079E2	-19.712E0
8.6118E2	-18.574E0
8.6157E2	-22.897E0
8.6196E2	-6.5137E0
8.6235E2	-42.694E0
8.6274E2	-32.455E0
8.6313E2	-16.298E0
8.6352E2	-44.287E0
8.639E2	-29.724E0
8.6429E2	-15.161E0
8.6468E2	-30.634E0
8.6507E2	-15.616E0
8.6546E2	-25.856E0
8.6585E2	-15.843E0
8.6624E2	-2.4177E0
8.6663E2	-21.76E0
8.6702E2	-42.694E0
8.674E2	-38.599E0
8.6779E2	-25.173E0
8.6818E2	-15.388E0
8.6857E2	-27.448E0
8.6896E2	-9.6994E0
8.6935E2	-20.167E0
8.6973E2	-39.964E0
8.7012E2	-42.467E0
8.7051E2	-35.64E0
8.709E2	-12.202E0
8.7129E2	-35.413E0
8.7167E2	-21.077E0
8.7206E2	-15.843E0
8.7245E2	-9.6994E0
8.7284E2	-20.849E0
8.7323E2	-32.91E0
8.7361E2	-19.939E0
8.740E2	-24.49E0
8.7439E2	-29.041E0
8.7478E2	-2.4177E0
8.7516E2	-6.0586E0
8.7555E2	-16.526E0
8.7594E2	-21.76E0
8.7633E2	-26.766E0
8.7671E2	-28.814E0
8.771E2	-24.49E0
8.7749E2	-36.778E0
8.7787E2	-28.131E0
8.7826E2	-25.628E0
8.7865E2	-34.047E0
8.7904E2	-31.089E0
8.7942E2	-11.292E0
8.7981E2	-7.1963E0
8.802E2	3.2711E0
8.8058E2	-14.933E0
8.8097E2	-23.353E0
8.8136E2	-9.927E0
8.8174E2	-35.413E0
8.8213E2	-21.76E0
8.8252E2	-34.73E0
8.829E2	-22.67E0
8.8329E2	-14.478E0
8.8367E2	-34.958E0
8.8406E2	-12.658E0
8.8445E2	-12.885E0
8.8483E2	-22.67E0
8.8522E2	-10.155E0
8.856E2	-16.298E0
8.8599E2	31.288E-2
8.8638E2	-23.353E0
8.8676E2	-13.568E0
8.8715E2	-14.25E0
8.8753E2	-18.801E0
8.8792E2	-6.7412E0
8.883E2	-25.856E0
8.8869E2	-25.173E0
8.8907E2	-24.718E0
8.8946E2	-12.202E0
8.8984E2	-6.7412E0
8.9023E2	-26.538E0
8.9062E2	-16.298E0
8.910E2	-30.407E0
8.9139E2	-33.592E0
8.9177E2	-20.849E0
8.9216E2	-12.658E0
8.9254E2	-6.5137E0
8.9292E2	-9.2443E0
8.9331E2	-8.1065E0
8.9369E2	-19.257E0
8.9408E2	-26.766E0
8.9446E2	-27.904E0
8.9485E2	-43.605E0
8.9523E2	-29.952E0
8.9562E2	-16.981E0
8.960E2	-11.52E0
8.9639E2	-16.981E0
8.9677E2	-15.843E0
8.9715E2	-10.155E0
8.9754E2	-17.891E0
8.9792E2	-9.4719E0
8.9831E2	-26.083E0
8.9869E2	-9.2443E0
8.9907E2	-26.538E0
8.9946E2	-27.904E0
8.9984E2	-25.173E0
9.0022E2	-7.6514E0
9.0061E2	-25.401E0
9.0099E2	-37.461E0
9.0138E2	-13.795E0
9.0176E2	-31.089E0
9.0214E2	-18.574E0
9.0253E2	-13.568E0
9.0291E2	-33.365E0
9.0329E2	-14.706E0
9.0368E2	-7.879E0
9.0406E2	-20.622E0
9.0444E2	-38.599E0
9.0482E2	-31.544E0
9.0521E2	-52.024E0
9.0559E2	-10.61E0
9.0597E2	-31.317E0
9.0636E2	-8.1065E0
9.0674E2	-15.616E0
9.0712E2	-10.155E0
9.075E2	-27.448E0
9.0789E2	-47.473E0
9.0827E2	-19.029E0
9.0865E2	-21.305E0
9.0903E2	-39.054E0
9.0941E2	-11.975E0
9.098E2	-13.795E0
9.1018E2	-15.616E0
9.1056E2	-17.891E0
9.1094E2	-13.795E0
9.1133E2	-18.574E0
9.1171E2	-29.269E0
9.1209E2	-15.388E0
9.1247E2	-21.305E0
9.1285E2	-14.478E0
9.1323E2	-25.856E0
9.1362E2	-34.275E0
9.140E2	-30.179E0
9.1438E2	-17.209E0
9.1476E2	-2.6453E0
9.1514E2	-14.933E0
9.1552E2	-21.532E0
9.159E2	-24.718E0
9.1629E2	-22.442E0
9.1667E2	-17.209E0
9.1705E2	-15.388E0
9.1743E2	-24.945E0
9.1781E2	-26.766E0
9.1819E2	-38.599E0
9.1857E2	-8.7892E0
9.1895E2	-15.843E0
9.1933E2	-26.083E0
9.1971E2	-25.628E0
9.2009E2	-4.9208E0
9.2047E2	16.014E0
9.2085E2	-22.215E0
9.2123E2	-10.382E0
9.2162E2	-7.4239E0
9.220E2	-29.724E0
9.2238E2	-15.388E0
9.2276E2	-34.958E0
9.2314E2	-44.515E0
9.2352E2	-7.879E0
9.239E2	-6.7412E0
9.2428E2	-3.3279E0
9.2466E2	-27.221E0
9.2504E2	-34.275E0
9.2542E2	-13.795E0
9.2579E2	-19.484E0
9.2617E2	3.4986E0
9.2655E2	-19.484E0
9.2693E2	-12.885E0
9.2731E2	1.4506E0
9.2769E2	-18.346E0
9.2807E2	-12.658E0
9.2845E2	-20.167E0
9.2883E2	-9.927E0
9.2921E2	-34.275E0
9.2959E2	-25.173E0
9.2997E2	-33.592E0
9.3035E2	-23.125E0
9.3072E2	-30.634E0
9.311E2	-18.574E0
9.3148E2	-41.784E0
9.3186E2	-37.916E0
9.3224E2	-16.981E0
9.3262E2	-26.538E0
9.330E2	-11.065E0
9.3338E2	-17.436E0
9.3375E2	-28.131E0
9.3413E2	-20.167E0
9.3451E2	-18.119E0
9.3489E2	-24.263E0
9.3527E2	-35.413E0
9.3564E2	-22.67E0
9.3602E2	-7.879E0
9.364E2	-44.515E0
9.3678E2	-31.317E0
9.3716E2	-13.113E0
9.3753E2	-17.209E0
9.3791E2	-27.904E0
9.3829E2	-27.676E0
9.3867E2	-11.747E0
9.3904E2	-23.125E0
9.3942E2	-29.496E0
9.398E2	-6.2861E0
9.4018E2	-29.041E0
9.4055E2	-5.6035E0
9.4093E2	-26.766E0
9.4131E2	-24.263E0
9.4169E2	-36.551E0
9.4206E2	-20.167E0
9.4244E2	-7.4239E0
9.4282E2	-9.6994E0
9.4319E2	-31.544E0
9.4357E2	-32.00E0
9.4395E2	-17.436E0
9.4432E2	-6.9688E0
9.447E2	-6.5137E0
9.4508E2	-3.7831E0
9.4545E2	-31.089E0
9.4583E2	-37.461E0
9.4621E2	-24.718E0
9.4658E2	-21.077E0
9.4696E2	-33.592E0
9.4733E2	-12.658E0
9.4771E2	-13.795E0
9.4809E2	-35.413E0
9.4846E2	-28.131E0
9.4884E2	-29.952E0
9.4921E2	-36.778E0
9.4959E2	-6.5137E0
9.4997E2	-26.083E0
9.5034E2	-23.808E0
9.5072E2	-37.006E0
9.5109E2	-19.029E0
9.5147E2	-18.119E0
9.5184E2	-8.7892E0
9.5222E2	-29.496E0
9.5259E2	-26.538E0
9.5297E2	-49.293E0
9.5335E2	-19.029E0
9.5372E2	-17.436E0
9.541E2	-18.346E0
9.5447E2	-33.137E0
9.5485E2	-6.0586E0
9.5522E2	-51.114E0
9.556E2	-8.3341E0
9.5597E2	-12.43E0
9.5634E2	-17.664E0
9.5672E2	-21.532E0
9.5709E2	-20.622E0
9.5747E2	-22.897E0
9.5784E2	-15.843E0
9.5822E2	-45.425E0
9.5859E2	-22.67E0
9.5897E2	-5.1484E0
9.5934E2	-5.1484E0
9.5971E2	2.1333E0
9.6009E2	2.3609E0
9.6046E2	-9.927E0
9.6084E2	-37.461E0
9.6121E2	-27.448E0
9.6158E2	31.288E-2
9.6196E2	-31.772E0
9.6233E2	-12.43E0
9.6271E2	-7.1963E0
9.6308E2	-11.52E0
9.6345E2	-32.227E0
9.6383E2	-19.712E0
9.642E2	-32.227E0
9.6457E2	-15.388E0
9.6495E2	-19.029E0
9.6532E2	-12.885E0
9.6569E2	-32.455E0
9.6607E2	-6.9688E0
9.6644E2	-23.125E0
9.6681E2	-37.233E0
9.6718E2	-32.00E0
9.6756E2	-10.61E0
9.6793E2	-1.280E0
9.683E2	-8.1065E0
9.6867E2	-34.958E0
9.6905E2	-41.329E0
9.6942E2	-32.227E0
9.6979E2	-18.119E0
9.7016E2	-17.664E0
9.7054E2	-26.993E0
9.7091E2	-34.503E0
9.7128E2	-29.269E0
9.7165E2	-42.467E0
9.7203E2	-20.849E0
9.724E2	-25.856E0
9.7277E2	-32.00E0
9.7314E2	-16.981E0
9.7351E2	-14.933E0
9.7389E2	-4.2382E0
9.7426E2	-39.281E0
9.7463E2	-27.676E0
9.750E2	-12.885E0
9.7537E2	-39.281E0
9.7574E2	-13.795E0
9.7611E2	-20.849E0
9.7649E2	-21.305E0
9.7686E2	-9.6994E0
9.7723E2	-19.484E0
9.776E2	-18.346E0
9.7797E2	-31.772E0
9.7834E2	5.1708E2
9.7871E2	-1.7351E0
9.7908E2	-25.628E0
9.7945E2	-15.161E0
9.7982E2	-4.4657E0
9.802E2	-24.945E0
9.8057E2	-36.323E0
9.8094E2	-26.083E0
9.8131E2	-26.311E0
9.8168E2	-18.574E0
9.8205E2	-18.119E0
9.8242E2	-12.658E0
9.8279E2	-20.167E0
9.8316E2	-14.933E0
9.8353E2	-34.73E0
9.839E2	-19.484E0
9.8427E2	-29.041E0
9.8464E2	-36.095E0
9.8501E2	-19.257E0
9.8538E2	-15.616E0
9.8575E2	-12.43E0
9.8612E2	-19.029E0
9.8649E2	-34.503E0
9.8686E2	-26.766E0
9.8723E2	-35.868E0
9.876E2	-27.676E0
9.8796E2	-31.089E0
9.8833E2	-19.257E0
9.887E2	-18.119E0
9.8907E2	-22.897E0
9.8944E2	-35.868E0
9.8981E2	-29.724E0
9.9018E2	-4.6933E0
9.9055E2	-24.718E0
9.9092E2	-24.945E0
9.9129E2	-20.167E0
9.9165E2	-9.4719E0
9.9202E2	-36.977E-2
9.9239E2	-6.7412E0
9.9276E2	-29.496E0
9.9313E2	-22.897E0
9.935E2	-39.281E0
9.9387E2	-19.939E0
9.9423E2	-27.448E0
9.946E2	-23.353E0
9.9497E2	-12.658E0
9.9534E2	-19.029E0
9.9571E2	-25.173E0
9.9607E2	-6.9688E0
9.9644E2	-7.879E0
9.9681E2	3.4986E0
9.9718E2	-21.077E0
9.9755E2	-4.9208E0
9.9791E2	-13.568E0
9.9828E2	-19.712E0
9.9865E2	-4.9208E0
9.9902E2	-14.478E0
9.9938E2	-27.221E0
9.9975E2	-31.089E0
10.001E2	-11.065E0
10.005E2	-29.496E0
10.009E2	-26.538E0
10.012E2	-27.904E0
10.016E2	-15.161E0
10.02E2	-49.976E0
10.023E2	-46.79E0
10.027E2	-15.161E0
10.031E2	-28.586E0
10.034E2	-11.975E0
10.038E2	-12.658E0
10.042E2	-26.538E0
10.045E2	-27.448E0
10.049E2	-28.131E0
10.053E2	-15.161E0
10.056E2	-7.4239E0
10.06E2	-29.952E0
10.064E2	-12.885E0
10.067E2	-43.15E0
10.071E2	-8.7892E0
10.074E2	-19.484E0
10.078E2	-23.58E0
10.082E2	-4.6933E0
10.085E2	-39.509E0
10.089E2	-51.114E0
10.093E2	-31.544E0
10.096E2	-20.849E0
10.10E2	-19.939E0
10.104E2	-35.64E0
10.107E2	-23.808E0
10.111E2	-13.795E0
10.115E2	-23.125E0
10.118E2	-23.808E0
10.122E2	-10.155E0
10.126E2	-25.401E0
10.129E2	-7.1963E0
10.133E2	-9.2443E0
10.137E2	-13.568E0
10.14E2	-34.047E0
10.144E2	-35.64E0
10.148E2	-9.2443E0
10.151E2	-17.209E0
10.155E2	-22.442E0
10.158E2	-7.879E0
10.162E2	-10.837E0
10.166E2	-23.125E0
10.169E2	-19.484E0
10.173E2	-22.442E0
10.177E2	-23.58E0
10.18E2	-11.747E0
10.184E2	-4.0106E0
10.188E2	-25.401E0
10.191E2	-34.275E0
10.195E2	-17.891E0
10.199E2	-27.904E0
10.202E2	-25.856E0
10.206E2	-17.209E0
10.209E2	-27.448E0
10.213E2	-13.795E0
10.217E2	-27.904E0
10.22E2	-18.346E0
10.224E2	-17.664E0
10.228E2	-6.9688E0
10.231E2	-20.394E0
10.235E2	-20.167E0
10.238E2	-32.455E0
10.242E2	-19.712E0
10.246E2	-21.077E0
10.249E2	-19.712E0
10.253E2	-35.64E0
10.257E2	-17.891E0
10.26E2	-9.0168E0
10.264E2	-14.706E0
10.267E2	-23.808E0
10.271E2	-14.25E0
10.275E2	-14.478E0
10.278E2	-8.1065E0
10.282E2	-7.4239E0
10.286E2	-35.868E0
10.289E2	-16.071E0
10.293E2	-17.436E0
10.296E2	-17.664E0
10.30E2	-18.574E0
10.304E2	-9.2443E0
10.307E2	-22.67E0
10.311E2	-9.2443E0
10.315E2	-13.34E0
10.318E2	-8.5616E0
10.322E2	-41.102E0
10.325E2	-14.706E0
10.329E2	-12.658E0
10.333E2	-5.6035E0
10.336E2	-10.155E0
10.34E2	-22.442E0
10.343E2	-20.622E0
10.347E2	-24.718E0
10.351E2	-14.933E0
10.354E2	-43.605E0
10.358E2	-26.993E0
10.362E2	-2.8728E0
10.365E2	-26.766E0
10.369E2	-3.5555E0
10.372E2	-20.394E0
10.376E2	-7.879E0
10.38E2	-4.6933E0
